Atmospheric Species: CO
Metallicity: 10
C/O_Ratio: 1.0
Wavelength[nm] Flux_variation
1699.999720594985 1.0
1700.0014205955558 0.9999999994656069
1700.003120597826 0.9999999989310714
1700.0048206017968 0.9999999983963715
1700.0065206074676 0.9999999978614763
1700.0082206148381 0.9999999973263406
1700.0099206239088 0.9999999967908983
1700.0116206346793 0.999999996255051
1700.0133206471498 0.9999999957186447
1700.0150206613202 0.9999999951814277
1700.016720677191 0.9999999946429436
1700.0184206947615 0.9999999941022155
1700.020120714032 0.9999999935567544
1700.0218207350024 0.9999999930000198
1700.0235207576732 0.9999999924173886
1700.025220782044 0.99999999178631
1700.0269208081147 0.9999999910939619
1700.0286208358855 0.9999999903730051
1700.0303208653559 0.9999999897117025
1700.032020896527 0.9999999891904886
1700.0337209293978 0.999999988800138
1700.0354209639686 0.999999988451854
1700.0371210002395 0.9999999880646535
1700.0388210382105 0.9999999876162089
1700.0405210778813 0.9999999871233821
1700.0422211192524 0.9999999866079373
1700.0439211623234 0.9999999860828321
1700.0456212070944 0.9999999855536239
1700.0473212535655 0.9999999850224093
1700.0490213017365 0.9999999844900314
1700.050721351608 0.9999999839568972
1700.0524214031793 0.9999999834232371
1700.0541214564507 0.9999999828891927
1700.0558215114222 0.9999999823548565
1700.0575215680938 0.9999999818202915
1700.0592216264656 0.9999999812855401
1700.0609216865369 0.9999999807506332
1700.0626217483084 0.9999999802155926
1700.0643218117798 0.9999999796804342
1700.0660218769517 0.9999999791451698
1700.0677219438237 0.9999999786098079
1700.0694220123955 0.999999978074355
1700.0711220826677 0.9999999775388156
1700.0728221546399 0.999999977003193
1700.0745222283117 0.9999999764674891
1700.0762223036838 0.9999999759317052
1700.0779223807563 0.9999999753958421
1700.0796224595285 0.9999999748598993
1700.081322540001 0.9999999743238762
1700.0830226221735 0.9999999737877718
1700.084722706046 0.9999999732515843
1700.0864227916188 0.9999999727153116
1700.0881228788917 0.9999999721789514
1700.0898229678646 0.999999971642502
1700.0915230585374 0.9999999711059606
1700.0932231509105 0.9999999705693239
1700.0949232449836 0.9999999700325867
1700.0966233407569 0.999999969495744
1700.0983234382302 0.9999999689587903
1700.1000235374036 0.9999999684217195
1700.101723638277 0.9999999678845263
1700.1034237408508 0.9999999673472033
1700.1051238451244 0.9999999668097426
1700.106823951098 0.9999999662721353
1700.108524058772 0.9999999657343714
1700.1102241681463 0.9999999651964393
1700.1119242792201 0.9999999646583264
1700.1136243919946 0.9999999641200179
1700.1153245064686 0.9999999635814969
1700.1170246226434 0.9999999630427444
1700.118724740518 0.9999999625037376
1700.1204248600927 0.9999999619644503
1700.1221249813675 0.9999999614248517
1700.1238251043426 0.9999999608849051
1700.1255252290177 0.9999999603445666
1700.1272253553927 0.9999999598037836
1700.1289254834683 0.9999999592624916
1700.1306256132436 0.9999999587206105
1700.1323257447189 0.999999958178041
1700.134025877895 0.9999999576346565
1700.1357260127709 0.9999999570902942
1700.137426149347 0.9999999565447432
1700.1391262876232 0.9999999559977201
1700.1408264275992 0.9999999554488406
1700.1425265692758 0.9999999548975719
1700.1442267126522 0.9999999543431527
1700.1459268577291 0.999999953784462
1700.147627004506 0.999999953219789
1700.149327152983 0.9999999526463124
1700.1510273031602 0.9999999520587282
1700.1527274550374 0.9999999514449194
1700.154427608615 0.9999999507738122
1700.1561277638923 0.9999999499715767
1700.1578279208704 0.9999999489045499
1700.1595280795482 0.9999999474358008
1700.1612282399262 0.999999945609689
1700.1629284020044 0.9999999438332726
1700.1646285657832 0.9999999427271671
1700.1663287312617 0.99999994262204
1700.1680288984403 0.9999999432403889
1700.169729067319 0.9999999439737213
1700.171429237898 0.9999999443868123
1700.1731294101774 0.9999999443988584
1700.174829584157 0.9999999441267535
1700.1765297598363 0.9999999437018937
1700.1782299372162 0.9999999432012141
1700.1799301162962 0.9999999426513984
1700.1816302970763 0.9999999420460228
1700.1833304795568 0.9999999413647105
1700.1850306637373 0.9999999406044238
1700.186730849618 0.9999999398081945
1700.1884310371988 0.999999939038634
1700.1901312264797 0.9999999382823365
1700.1918314174611 0.9999999373879979
1700.1935316101426 0.9999999361689583
1700.1952318045244 0.9999999346400174
1700.196932000606 0.9999999331618005
1700.1986321983882 0.999999932251707
1700.2003323978704 0.9999999321573362
1700.202032599053 0.9999999326349817
1700.2037328019355 0.9999999331885845
1700.2054330065184 0.9999999334652668
1700.2071332128014 0.9999999333994962
1700.208833420785 0.9999999330907114
1700.210533630468 0.9999999326520012
1700.2122338418515 0.99999993215121
1700.2139340549356 0.9999999316179639
1700.2156342697199 0.9999999310614456
1700.2173344862042 0.9999999304790155
1700.2190347043886 0.9999999298577175
1700.2207349242735 0.9999999291811819
1700.2224351458585 0.9999999284541917
1700.2241353691436 0.9999999277290448
1700.2258355941292 0.9999999270823746
1700.2275358208146 0.9999999265404694
1700.2292360492004 0.9999999260464582
1700.2309362792867 0.9999999255176942
1700.232636511073 0.9999999249125611
1700.2343367445594 0.9999999242395888
1700.236036979746 0.9999999235333135
1700.2377372166331 0.9999999228281827
1700.2394374552205 0.9999999221366394
1700.241137695508 0.9999999214424836
1700.2428379374958 0.9999999207167014
1700.2445381811838 0.999999919937771
1700.246238426572 0.9999999190966763
1700.2479386736607 0.9999999181888763
1700.2496389224493 0.9999999172062674
1700.2513391729383 0.9999999161339242
1700.2530394251273 0.9999999149490469
1700.2547396790171 0.999999913619087
1700.2564399346068 0.9999999120979675
1700.2581401918967 0.9999999103185206
1700.2598404508867 0.9999999081819047
1700.2615407115777 0.9999999055336373
1700.263240973968 0.9999999021186706
1700.2649412380592 0.9999998974675445
1700.2666415038505 0.9999998905650546
1700.2683417713422 0.9999998788928794
1700.2700420405338 0.9999998562082435
1700.2717423114264 0.9999998095465082
1700.2734425840185 0.9999997206551089
1700.275142858311 0.9999995814424743
1700.276843134304 0.9999994201238963
1700.2785434119971 0.9999993050964046
1700.2802436913905 0.9999993000096234
1700.2819439724844 0.9999994078121474
1700.2836442552784 0.9999995678384113
1700.2853445397727 0.9999997095962778
1700.2870448259675 0.9999998011441392
1700.2887451138624 0.9999998488823076
1700.2904454034576 0.9999998713523619
1700.2921456947531 0.9999998822357745
1700.2938459877491 0.9999998881756064
1700.2955462824452 0.9999998918174005
1700.2972465788416 0.9999998942039836
1700.2989468769385 0.9999998958118632
1700.3006471767358 0.9999998969000338
1700.3023474782328 0.9999998976257709
1700.3040477814307 0.9999998980897143
1700.3057480863285 0.9999998983603579
1700.3074483929267 0.99999989848475
1700.3091487012252 0.9999998984964569
1700.3108490112243 0.9999998984198692
1700.3125493229234 0.9999998982730881
1700.3142496363225 0.9999998980697823
1700.3159499514227 0.9999998978204379
1700.3176502682227 0.9999998975332051
1700.3193505867227 0.9999998972145008
1700.3210509069238 0.9999998968694322
1700.3227512288247 0.9999998965021034
1700.324451552426 0.9999998961158483
1700.3261518777274 0.9999998957133892
1700.3278522047294 0.9999998952969793
1700.3295525334318 0.9999998948684794
1700.3312528638346 0.9999998944294513
1700.3329531959375 0.9999998939812041
1700.334653529741 0.9999998935248439
1700.3363538652445 0.9999998930613133
1700.3380542024483 0.9999998925913974
1700.3397545413527 0.999999892115783
1700.3414548819576 0.9999998916350524
1700.3431552242623 0.9999998911496957
1700.3448555682678 0.9999998906601321
1700.3465559139734 0.9999998901667151
1700.3482562613794 0.9999998896697638
1700.3499566104858 0.999999889169439
1700.3516569612923 0.9999998886659519
1700.3533573137995 0.9999998881593897
1700.355057668007 0.9999998876497819
1700.3567580239148 0.9999998871370501
1700.358458381523 0.9999998866209815
1700.360158740831 0.9999998861011546
1700.3618591018403 0.9999998855768113
1700.3635594645496 0.9999998850465499
1700.365259828959 0.9999998845074539
1700.366960195069 0.9999998839524689
1700.3686605628795 0.9999998833638576
1700.37036093239 0.999999882702964
1700.372061303601 0.9999998819092232
1700.3737616765122 0.9999998809354648
1700.3754620511243 0.9999998798150486
1700.3771624274364 0.9999998786753874
1700.378862805449 0.9999998776455399
1700.380563185162 0.9999998768083738
1700.3822635665754 0.9999998762848907
1700.383963949689 0.999999876191797
1700.385664334503 0.9999998764224115
1700.3873647210175 0.9999998766601583
1700.3890651092324 0.999999876668598
1700.3907654991474 0.999999876431366
1700.392465890763 0.9999998760402806
1700.3941662840791 0.999999875578325
1700.3958666790954 0.9999998750867591
1700.3975670758123 0.9999998745815142
1700.3992674742296 0.9999998740686451
1700.400967874347 0.9999998735508495
1700.402668276165 0.9999998730296028
1700.4043686796833 0.9999998725058149
1700.4060690849024 0.9999998719800848
1700.4077694918215 0.9999998714528218
1700.409469900441 0.9999998709243112
1700.4111703107612 0.9999998703947551
1700.4128707227815 0.9999998698642962
1700.4145711365024 0.9999998693330315
1700.4162715519237 0.9999998688010203
1700.4179719690453 0.9999998682682834
1700.4196723878674 0.9999998677347911
1700.4213728083898 0.9999998672004163
1700.423073230613 0.9999998666647781
1700.4247736545362 0.9999998661268307
1700.42647408016 0.9999998655842192
1700.4281745074843 0.9999998650333312
1700.429874936509 0.999999864472044
1700.431575367234 0.9999998639050577
1700.4332757996597 0.9999998633455845
1700.4349762337856 0.9999998628066473
1700.436676669612 0.9999998622887387
1700.4383771071389 0.9999998617790685
1700.4400775463664 0.9999998612633082
1700.4417779872938 0.9999998607347544
1700.4434784299222 0.9999998601923221
1700.4451788742506 0.9999998596324676
1700.4468793202798 0.9999998590420456
1700.448579768009 0.9999998583987667
1700.450280217439 0.999999857690234
1700.4519806685694 0.9999998569494507
1700.4536811214002 0.999999856265117
1700.4553815759316 0.9999998557226953
1700.4570820321633 0.999999855323283
1700.4587824900957 0.9999998549822675
1700.4604829497282 0.9999998546097653
1700.4621834110615 0.9999998541714177
1700.4638838740948 0.9999998536795409
1700.4655843388289 0.9999998531576588
1700.4672848052635 0.9999998526214343
1700.4689852733984 0.9999998520778351
1700.4706857432336 0.9999998515293146
1700.4723862147698 0.9999998509765388
1700.4740866880059 0.999999850419427
1700.475787162943 0.9999998498574734
1700.4774876395804 0.9999998492898349
1700.479188117918 0.9999998487153035
1700.4808885979564 0.9999998481321786
1700.4825890796951 0.99999984753806
1700.4842895631343 0.9999998469295287
1700.4859900482743 0.999999846301588
1700.4876905351143 0.9999998456468439
1700.489391023655 0.9999998449537889
1700.4910915138962 0.9999998442036007
1700.492792005838 0.9999998433622217
1700.4944924994802 0.9999998423563021
1700.4961929948229 0.9999998409965101
1700.4978934918663 0.9999998387772191
1700.4995939906096 0.9999998345592968
1700.5012944910538 0.9999998266173351
1700.5029949931984 0.9999998141452349
1700.5046954970437 0.9999998000898388
1700.5063960025893 0.9999997914432649
1700.5080965098355 0.9999997936547773
1700.5097970187821 0.9999998047888923
1700.5114975294293 0.9999998176973612
1700.5131980417773 0.9999998269902142
1700.5148985558253 0.9999998318527025
1700.516599071574 0.999999833845005
1700.5182995890234 0.9999998344821255
1700.5200001081735 0.9999998345616193
1700.5217006290236 0.999999834401615
1700.5234011515745 0.999999834120205
1700.5251016758257 0.9999998337668425
1700.5268022017776 0.9999998333667143
1700.52850272943 0.9999998329345725
1700.530203258783 0.9999998324796613
1700.5319037898366 0.9999998320081399
1700.5336043225902 0.9999998315241914
1700.5353048570453 0.999999831030751
1700.5370053932002 0.9999998305299328
1700.5387059310556 0.9999998300232885
1700.540406470612 0.999999829511979
1700.5421070118687 0.9999998289968868
1700.543807554826 0.9999998284786928
1700.545508099484 0.9999998279579295
1700.547208645842 0.9999998274350175
1700.5489091939007 0.9999998269102932
1700.55060974366 0.9999998263840277
1700.55231029512 0.999999825856442
1700.5540108482805 0.9999998253277169
1700.5557114031415 0.9999998247980023
1700.5574119597031 0.9999998242674225
1700.5591125179653 0.9999998237360816
1700.560813077928 0.9999998232040673
1700.5625136395913 0.9999998226714546
1700.5642142029553 0.9999998221383037
1700.5659147680199 0.9999998216046697
1700.567615334785 0.9999998210705984
1700.5693159032505 0.999999820536128
1700.5710164734166 0.9999998200012927
1700.5727170452838 0.999999819466123
1700.5744176188507 0.9999998189306389
1700.5761181941186 0.9999998183948638
1700.5778187710873 0.9999998178588153
1700.579519349756 0.9999998173225071
1700.5812199301258 0.9999998167859513
1700.5829205121959 0.9999998162491563
1700.5846210959667 0.9999998157121285
1700.586321681438 0.9999998151748697
1700.5880222686098 0.9999998146373781
1700.5897228574827 0.9999998140996466
1700.5914234480554 0.9999998135616587
1700.593124040329 0.9999998130233828
1700.5948246343032 0.9999998124847508
1700.596525229978 0.9999998119455921
1700.5982258273534 0.9999998114054511
1700.5999264264299 0.9999998108632662
1700.6016270272064 0.9999998103172812
1700.6033276296837 0.9999998097662477
1700.6050282338615 0.999999809212272
1700.60672883974 0.9999998086621196
1700.6084294473192 0.9999998081225986
1700.6101300565986 0.9999998075936143
1700.611830667579 0.9999998070682646
1700.6135312802598 0.9999998065398323
1700.615231894641 0.9999998060062835
1700.6169325107235 0.9999998054688785
1700.618633128506 0.9999998049293404
1700.6203337479897 0.9999998043886872
1700.6220343691734 0.9999998038473334
1700.6237349920582 0.999999803305409
1700.6254356166435 0.9999998027629362
1700.6271362429293 0.9999998022198926
1700.6288368709156 0.9999998016762286
1700.6305375006027 0.99999980113187
1700.63223813199 0.9999998005867163
1700.633938765079 0.9999998000406334
1700.6356393998678 0.9999997994934442
1700.6373400363575 0.9999997989449126
1700.6390406745477 0.999999798394719
1700.6407413144386 0.9999997978424235
1700.6424419560303 0.9999997972874047
1700.6441425993223 0.9999997967287613
1700.6458432443155 0.9999997961651481
1700.6475438910088 0.9999997955944322
1700.6492445394028 0.9999997950129028
1700.6509451894979 0.9999997944128736
1700.6526458412934 0.9999997937753333
1700.6543464947895 0.9999997930520527
1700.656047149986 0.9999997921402364
1700.6577478068834 0.9999997908908393
1700.6594484654815 0.9999997892286809
1700.6611491257802 0.9999997873690188
1700.6628497877796 0.9999997858730982
1700.6645504514797 0.999999785283655
1700.6662511168802 0.9999997856250966
1700.6679517839818 0.9999997863793443
1700.6696524527838 0.9999997869691529
1700.6713531232863 0.9999997871502231
1700.6730537954897 0.9999997869826333
1700.6747544693937 0.9999997866151675
1700.6764551449987 0.9999997861551029
1700.678155822304 0.9999997856539415
1700.67985650131 0.9999997851320608
1700.6815571820168 0.9999997845974907
1700.6832578644241 0.9999997840539698
1700.6849585485324 0.9999997835034562
1700.6866592343413 0.9999997829470647
1700.6883599218506 0.9999997823854146
1700.690060611061 0.9999997818187863
1700.6917613019718 0.9999997812472199
1700.693461994583 0.9999997806705639
1700.6951626888956 0.9999997800885029
1700.6968633849087 0.9999997795005449
1700.6985640826222 0.999999778905989
1700.7002647820368 0.9999997783038328
1700.7019654831518 0.999999777692703
1700.7036661859677 0.9999997770709896
1700.7053668904841 0.9999997764373866
1700.7070675967013 0.9999997757913501
1700.7087683046193 0.9999997751323899
1700.710469014238 0.9999997744582899
1700.7121697255573 0.99999977376418
1700.7138704385775 0.9999997730434879
1700.715571153298 0.9999997722890447
1700.7172718697195 0.9999997714927378
1700.7189725878418 0.9999997706439134
1700.7206733076644 0.999999769727316
1700.7223740291881 0.999999768720547
1700.7240747524124 0.9999997675909521
1700.7257754773375 0.9999997662915592
1700.7274762039633 0.9999997647493788
1700.72917693229 0.999999762822014
1700.730877662317 0.9999997601801226
1700.732578394045 0.9999997561234872
1700.7342791274737 0.9999997495294853
1700.735979862603 0.9999997392788331
1700.7376805994334 0.9999997247962068
1700.7393813379642 0.9999997049992092
1700.7410820781959 0.9999996756671622
1700.7427828201282 0.9999996310564441
1700.7444835637614 0.9999995741577231
1700.7461843090953 0.9999995251771396
1700.74788505613 0.99999951111069
1700.749585804865 0.9999995421417442
1700.7512865553015 0.9999996016613464
1700.7529873074382 0.9999996617257614
1700.7546880612758 0.99999970462763
1700.7563888168143 0.9999997288018173
1700.7580895740532 0.99999974064337
1700.7597903329931 0.9999997463236343
1700.7614910936338 0.9999997492759757
1700.7631918559753 0.9999997509608235
1700.7648926200177 0.9999997519485264
1700.7665933857602 0.9999997524945329
1700.7682941532041 0.999999752762299
1700.7699949223486 0.9999997528820008
1700.7716956931938 0.9999997529310682
1700.7733964657398 0.9999997529192923
1700.7750972399867 0.9999997528248674
1700.7767980159342 0.9999997526407575
1700.7784987935825 0.9999997523823844
1700.7801995729317 0.9999997520707933
1700.7819003539817 0.9999997517216072
1700.7836011367324 0.9999997513443367
1700.7853019211836 0.9999997509448822
1700.787002707336 0.9999997505273142
1700.7887034951889 0.999999750094692
1700.790404284743 0.9999997496494127
1700.7921050759976 0.9999997491933926
1700.7938058689529 0.9999997487281902
1700.795506663609 0.9999997482550751
1700.797207459966 0.9999997477750986
1700.798908258024 0.9999997472891289
1700.8006090577826 0.9999997467978888
1700.8023098592419 0.9999997463019884
1700.804010662402 0.9999997458019547
1700.805711467263 0.9999997452982472
1700.8074122738249 0.9999997447912617
1700.8091130820876 0.999999744281312
1700.810813892051 0.9999997437686331
1700.8125147037154 0.9999997432534068
1700.8142155170804 0.9999997427358072
1700.8159163321461 0.9999997422159129
1700.8176171489126 0.9999997416938332
1700.8193179673801 0.9999997411695976
1700.8210187875484 0.999999740643166
1700.8227196094176 0.9999997401143816
1700.8244204329876 0.9999997395829096
1700.8261212582584 0.9999997390479557
1700.82782208523 0.9999997385074217
1700.8295229139026 0.9999997379557101
1700.831223744276 0.9999997373804531
1700.83292457635 0.9999997367638458
1700.8346254101252 0.9999997360999936
1700.836326245601 0.9999997354240869
1700.8380270827777 0.9999997348096595
1700.8397279216554 0.9999997343055795
1700.8414287622338 0.9999997338817712
1700.843129604513 0.9999997334625189
1700.844830448493 0.9999997329976738
1700.846531294174 0.9999997324828082
1700.8482321415559 0.9999997319330154
1700.8499329906383 0.9999997313599859
1700.8516338414217 0.9999997313012086
1700.8533346939062 0.9999997312190062
1700.8550355480913 0.9999997311042301
1700.8567364039773 0.9999997309381942
1700.8584372615642 0.9999997306773927
1700.8601381208518 0.9999997302091019
1700.8618389818403 0.9999997292609996
1700.8635398445297 0.999999727326734
1700.8652407089198 0.9999997238628366
1700.8669415750107 0.9999997190056764
1700.8686424428026 0.9999997143328624
1700.8703433122955 0.9999997123083922
1700.872044183489 0.999999714221122
1700.8737450563838 0.9999997188890324
1700.8754459309791 0.9999997238757733
1700.8771468072755 0.999999727560842
1700.8788476852728 0.9999997297307263
1700.8805485649707 0.9999997308313249
1700.8822494463698 0.9999997312967838
1700.8839503294694 0.999999731417094
1700.8856512142702 0.9999997313980988
1700.887352100772 0.9999997313660175
1700.8890529889745 0.999999731362825
1700.8907538788778 0.9999997313822875
1700.8924547704821 0.999999731409478
1700.8941556637872 0.9999997314360479
1700.8958565587932 0.9999997314591964
1700.8975574555002 0.9999997314782273
