Atmospheric Species: CH4_CO_CO2_H2O_NH3
Metallicity: 1
C/O_Ratio: 0.5
Wavelength[nm] Flux_variation
1999.999812280322 0.9997471482735089
2000.001812281134 0.999752315528728
2000.003812283946 0.9997741832215133
2000.0058122887588 0.9998094159642228
2000.0078122955706 0.9998513758594656
2000.0098123043829 0.999891687101323
2000.0118123151951 0.9999233710690517
2000.0138123280071 0.9999427666228343
2000.0158123428193 0.9999533721355491
2000.017812359632 0.9999588473702534
2000.0198123784444 0.9999609362608289
2000.0218123992565 0.9999610148943054
2000.0238124220684 0.9999605474181303
2000.025812446881 0.9999612165727778
2000.0278124736938 0.9999636076104463
2000.0298125025063 0.9999663085871686
2000.0318125333185 0.9999668831493089
2000.033812566131 0.9999629806792382
2000.0358126009435 0.9999509233902757
2000.037812637756 0.9999249428048349
2000.0398126765688 0.9998882227490262
2000.0418127173812 0.9998500394590722
2000.0438127601935 0.9998162330458601
2000.0458128050066 0.9997923387879003
2000.0478128518196 0.9997825649650266
2000.0498129006319 0.9997885722607104
2000.0518129514448 0.9998094554653293
2000.053813004258 0.9998418668330951
2000.055813059071 0.9998809007140965
2000.0578131158836 0.9999211659272792
2000.0598131746967 0.9999520785055475
2000.06181323551 0.9999652586439496
2000.0638132983227 0.9999683844009877
2000.0658133631362 0.9999689637833274
2000.0678134299496 0.9999698908484989
2000.0698134987629 0.9999715511353902
2000.0718135695763 0.9999729329455829
2000.0738136423897 0.9999729780552885
2000.0758137172033 0.9999714502365514
2000.0778137940172 0.999968180828379
2000.079813872831 0.9999609000291111
2000.0818139536448 0.9999414557606018
2000.0838140364588 0.9999025235538265
2000.0858141212727 0.9998544598706781
2000.087814208087 0.9998058133082313
2000.089814296901 0.9997620815113726
2000.091814387715 0.9997297643989203
2000.0938144805295 0.9997133997212934
2000.095814575344 0.9997148696607217
2000.0978146721586 0.9997340226531769
2000.0998147709731 0.9997686044201107
2000.101814871788 0.9998136099837577
2000.1038149746025 0.9998621403853059
2000.1058150794172 0.9999056133590075
2000.1078151862328 0.9999248121276098
2000.1098152950476 0.9999185016127164
2000.1118154058631 0.9999098491790956
2000.1138155186784 0.9999090152696856
2000.115815633494 0.9999176939707195
2000.1178157503095 0.9999338966893581
2000.1198158691257 0.9999521954285173
2000.121815989941 0.9999661984415372
2000.123816112757 0.9999746370375958
2000.1258162375732 0.999980419252964
2000.1278163643894 0.9999848082930085
2000.1298164932057 0.9999866552205492
2000.1318166240221 0.9999846970178072
2000.1338167568388 0.9999787471478844
2000.1358168916554 0.9999700528216018
2000.1378170284725 0.9999617294899711
2000.1398171672895 0.9999577348753022
2000.1418173081065 0.9999604539198227
2000.1438174509237 0.9999689508184062
2000.145817595741 0.9999788291378624
2000.1478177425586 0.9999854102554603
2000.1498178913766 0.9999881914897628
2000.1518180421942 0.9999898496623354
2000.1538181950127 0.9999920507046896
2000.1558183498312 0.9999943966497995
2000.1578185066492 0.999996089172808
2000.1598186654676 0.9999970381464065
2000.1618188262864 0.9999974558888439
2000.1638189891055 0.9999972015491535
2000.165819153924 0.999995831636159
2000.1678193207435 0.9999930471489411
2000.1698194895628 0.9999889429678146
2000.1718196603822 0.9999839530636395
2000.1738198332023 0.9999784936109629
2000.1758200080221 0.999972910972746
2000.177820184842 0.999967723988102
2000.1798203636622 0.9999630527170662
2000.1818205444827 0.9999584459368798
2000.183820727303 0.9999541532454561
2000.1858209121242 0.9999512210505733
2000.1878210989448 0.999950337110109
2000.1898212877659 0.9999518383666482
2000.1918214785871 0.9999561676021296
2000.1938216714088 0.9999631645678623
2000.19582186623 0.999971024606488
2000.1978220630526 0.9999771402375428
2000.1998222618745 0.9999805385787753
2000.2018224626968 0.9999821288359834
2000.2038226655195 0.9999823190494497
2000.205822870342 0.9999796245246936
2000.2078230771644 0.9999727830556566
2000.2098232859878 0.9999637981088417
2000.2118234968113 0.9999561108855651
2000.213823709635 0.9999497630172842
2000.2158239244584 0.9999400888492094
2000.2178241412826 0.9999218863322022
2000.2198243601067 0.9998943747359285
2000.2218245809313 0.9998623324236721
2000.2238248037554 0.9998345674121998
2000.2258250285802 0.9998191296688007
2000.2278252554056 0.9998206940582735
2000.2298254842308 0.9998391492419436
2000.2318257150564 0.9998690108586047
2000.2338259478825 0.9999022233074509
2000.2358261827083 0.999931648440408
2000.2378264195343 0.9999521134033037
2000.2398266583607 0.9999636703501278
2000.2418268991873 0.9999714571599387
2000.2438271420144 0.9999793676325878
2000.2458273868415 0.9999877851311606
2000.247827633669 0.9999947664265771
2000.2498278824967 0.9999983081114244
2000.2518281333246 0.9999981672875434
2000.2538283861531 0.9999959923533691
2000.255828640981 0.9999939690920193
2000.2578288978098 0.99999342028645
2000.2598291566387 0.9999944189822667
2000.2618294174679 0.9999962613189413
2000.2638296802972 0.9999980228603327
2000.2658299451268 0.9999989253137388
2000.267830211957 0.9999986273902152
2000.2698304807873 0.9999973007309447
2000.271830751618 0.9999954720946335
2000.2738310244486 0.9999937785857156
2000.2758312992798 0.9999924876789195
2000.277831576111 0.9999910086436267
2000.2798318549428 0.9999882200289755
2000.2818321357747 0.9999834566261625
2000.283832418607 0.9999766704595151
2000.2858327034396 0.9999668572204107
2000.2878329902726 0.9999518035433927
2000.2898332791053 0.9999330100276176
2000.2918335699385 0.9999174448504448
2000.2938338627723 0.9999109273212191
2000.2958341576061 0.9999153068454604
2000.2978344544404 0.999929708734357
2000.299834753275 0.9999500907968302
2000.30183505411 0.9999694456447983
2000.3038353569448 0.9999830972416213
2000.3058356617803 0.9999911154920242
2000.3078359686162 0.9999939575477796
2000.3098362774524 0.9999901474330155
2000.3118365882883 0.9999785092898453
2000.313836901125 0.9999613116071157
2000.3158372159623 0.9999433626824658
2000.3178375327993 0.9999281257510781
2000.319837851637 0.9999169701006865
2000.321838172475 0.9999107502090266
2000.3238384953136 0.9999084309748649
2000.3258388201518 0.999904350129705
2000.3278391469905 0.9998941103064801
2000.3298394758299 0.9998827032412788
2000.331839806669 0.9998770621086136
2000.3338401395092 0.999879101921941
2000.3358404743494 0.9998874118665348
2000.33784081119 0.9999009903375395
2000.3398411500311 0.9999190287150499
2000.3418414908724 0.9999363518018667
2000.3438418337141 0.9999472991745461
2000.3458421785558 0.9999546988742507
2000.3478425253984 0.9999634191853305
2000.3498428742414 0.999973017782092
2000.351843225084 0.999980348052373
2000.353843577928 0.9999846714345776
2000.3558439327714 0.9999872655192609
2000.3578442896157 0.9999885831521822
2000.3598446484605 0.9999880078794152
2000.361845009305 0.9999844295136426
2000.3638453721503 0.9999767376310713
2000.3658457369957 0.9999650724229016
2000.3678461038414 0.9999515331814955
2000.3698464726879 0.9999393281410932
2000.3718468435345 0.9999313398523969
2000.3738472163816 0.9999285429071469
2000.3758475912289 0.9999293731917279
2000.3778479680766 0.9999319668482346
2000.3798483469245 0.9999368924101888
2000.3818487277726 0.9999457433383954
2000.3838491106217 0.9999578393056674
2000.3858494954707 0.9999693675852808
2000.3878498823208 0.9999763229064603
2000.389850271171 0.999978738117359
2000.391850662021 0.999980156264949
2000.3938510548717 0.9999826408425764
2000.3958514497233 0.9999839756501183
2000.3978518465744 0.9999810199360273
2000.3998522454267 0.9999753243209398
2000.4018526462794 0.9999721265143847
2000.4038530491318 0.9999747903773324
2000.405853453985 0.9999822424948022
2000.407853860839 0.9999898703280539
2000.4098542696927 0.9999932080223124
2000.4118546805466 0.9999917637718936
2000.4138550934015 0.9999881832396715
2000.4158555082572 0.999984986165414
2000.4178559251125 0.9999833687632775
2000.4198563439686 0.9999831896154155
2000.421856764825 0.9999834263919865
2000.423857187682 0.9999835974638096
2000.425857612539 0.9999846085696354
2000.427858039397 0.9999875207418626
2000.4298584682556 0.9999917815685283
2000.4318588991136 0.9999952411927594
2000.4338593319726 0.9999955706237907
2000.4358597668324 0.9999911612834702
2000.4378602036923 0.9999821886856929
2000.4398606425525 0.9999720674193756
2000.4418610834134 0.9999657936698955
2000.4438615262745 0.9999662388807424
2000.4458619711359 0.9999725406572209
2000.4478624179985 0.9999805404352617
2000.449862866861 0.9999852682581403
2000.4518633177238 0.9999850910051702
2000.453863770587 0.9999822201615521
2000.4558642254513 0.9999786838530824
2000.4578646823156 0.9999743448339067
2000.4598651411802 0.9999692040223142
2000.4618656020457 0.9999654932964819
2000.4638660649114 0.9999657846599603
2000.4658665297777 0.9999701537225694
2000.4678669966447 0.9999758660796298
2000.4698674655117 0.9999800421662527
2000.4718679363796 0.9999826593375752
2000.4738684092474 0.9999856663039269
2000.475868884116 0.9999900242373936
2000.477869360985 0.9999945943012757
2000.4798698398545 0.9999971062625432
2000.4818703207245 0.9999958790325627
2000.483870803595 0.9999905541725621
2000.485871288466 0.9999815315106708
2000.4878717753377 0.9999703559105871
2000.4898722642095 0.9999607153547199
2000.491872755082 0.9999566862348395
2000.4938732479552 0.9999598265376448
2000.4958737428285 0.9999681370065038
2000.4978742397027 0.9999773100149348
2000.4998747385769 0.999984037532536
2000.5018752394521 0.9999876516919234
2000.5038757423272 0.9999885643662795
2000.5058762472029 0.9999874032004975
2000.5078767540795 0.9999849428724725
2000.509877262956 0.9999814227453233
2000.5118777738342 0.9999768646224386
2000.5138782867118 0.9999722632136862
2000.5158788015904 0.9999688491968176
2000.5178793184689 0.9999654308638525
2000.519879837349 0.9999562811461974
2000.5218803582286 0.9999336863055155
2000.5238808811096 0.9998998509838608
2000.5258814059907 0.99986496848511
2000.5278819328719 0.9998334722665484
2000.5298824617544 0.9998088604698544
2000.5318829926364 0.9997958066450511
2000.5338835255197 0.9997974105410197
2000.5358840604035 0.9998138872698977
2000.537884597288 0.9998424099217832
2000.5398851361724 0.9998775487916542
2000.5418856770577 0.9999130778707512
2000.5438862199437 0.9999422440981338
2000.54588676483 0.9999601317393644
2000.5478873117172 0.9999693518267152
2000.5498878606047 0.9999740047247556
2000.5518884114929 0.9999767574494329
2000.5538889643813 0.9999792282631513
2000.5558895192703 0.9999818504032172
2000.5578900761602 0.9999838317543488
2000.5598906350506 0.9999839084965481
2000.5618911959411 0.9999818957771326
2000.5638917588328 0.9999792747460579
2000.5658923237245 0.9999775841147931
2000.567892890617 0.9999764842488047
2000.5698934595102 0.9999735810914602
2000.5718940304037 0.999966770231475
2000.573894603298 0.9999573219088103
2000.575895178193 0.9999494367013023
2000.5778957550883 0.9999469502121693
2000.5798963339842 0.9999512284265133
2000.5818969148809 0.9999601753305793
2000.5838974977776 0.9999672347581375
2000.5858980826756 0.9999637335723803
2000.5878986695739 0.9999483755854439
2000.589899258473 0.9999303149666527
2000.591899849372 0.9999184206916804
2000.5939004422726 0.9999159977329202
2000.5959010371732 0.9999226614147116
2000.5979016340743 0.9999323967081803
2000.599902232976 0.9999425502872284
2000.6019028338785 0.99994699446632
2000.6039034367816 0.9999463422007425
2000.605904041685 0.9999353650413054
2000.6079046485897 0.9999010762524416
2000.6099052574943 0.9998473051963469
2000.6119058683998 0.9997869869316621
2000.613906481306 0.9997316012931682
2000.6159070962128 0.9996903189796097
2000.61790771312 0.999667480371386
2000.6199083320282 0.9996646291213042
2000.621908952937 0.9996819254147268
2000.623909575846 0.9997182823985634
2000.625910200756 0.9997703590314153
2000.627910827666 0.9998303545101739
2000.6299114565775 0.9998868795404569
2000.6319120874891 0.9999270523757479
2000.633912720402 0.9999379361159824
2000.6359133553146 0.9999230662823384
2000.6379139922285 0.9998902631637008
2000.6399146311426 0.9998486001917378
2000.6419152720573 0.9998049897759064
2000.643915914973 0.9997677098868066
2000.645916559889 0.9997439488054856
2000.6479172068057 0.9997372951745973
2000.649917855723 0.9997485734839182
2000.6519185066409 0.9997763805409066
2000.6539191595598 0.9998165267769381
2000.6559198144796 0.9998615518970442
2000.6579204713996 0.9998998765910541
2000.65992113032 0.9999137863478431
2000.6619217912419 0.9999067714745202
2000.6639224541639 0.9998956503375599
2000.6659231190863 0.9998860108050504
2000.6679237860099 0.999874686579259
2000.6699244549338 0.9998587604646086
2000.6719251258585 0.9998474106110338
2000.6739257987842 0.9998456731940863
2000.67592647371 0.999855060526849
2000.6779271506366 0.9998766724806162
2000.6799278295641 0.9999096531241778
2000.6819285104925 0.999942912666967
2000.6839291934211 0.9999616465505664
2000.6859298783502 0.9999658962353433
2000.6879305652806 0.999961386827888
2000.6899312542112 0.9999508046699229
2000.691931945143 0.9999371913812162
2000.6939326380752 0.9999254295177294
2000.6959333330078 0.9999185584678717
2000.6979340299417 0.9999167696368634
2000.6999347288759 0.9999201033615445
2000.7019354298113 0.9999296069470626
2000.7039361327465 0.9999442201487623
2000.705936837683 0.9999572534708092
2000.7079375446203 0.9999606816810065
2000.7099382535578 0.9999546904885553
2000.7119389644963 0.9999466061478016
2000.7139396774357 0.9999428466231871
2000.7159403923756 0.9999456345918359
2000.7179411093164 0.9999532562061764
2000.7199418282578 0.9999618840630942
2000.7219425491999 0.9999690452013847
2000.7239432721424 0.9999745411442673
2000.7259439970862 0.9999781301953583
2000.7279447240305 0.9999796260755358
2000.7299454529755 0.999980297439895
2000.7319461839213 0.9999815507549881
2000.7339469168678 0.9999832332070254
2000.735947651815 0.999984303848915
2000.7379483887632 0.9999844893226452
2000.7399491277117 0.9999847244133616
2000.741949868661 0.9999859374542112
2000.7439506116116 0.9999878295448055
2000.745951356562 0.9999893496489185
2000.7479521035139 0.9999900464901751
2000.7499528524665 0.9999898774234687
2000.7519536034195 0.999987540166918
2000.7539543563735 0.9999803477571643
2000.7559551113281 0.9999675998899806
2000.7579558682833 0.9999537258962083
2000.75995662724 0.999945250136224
2000.7619573881968 0.9999457733286862
2000.7639581511546 0.9999546766202686
2000.7659589161133 0.9999675707759987
2000.7679596830724 0.9999787967505183
2000.7699604520324 0.9999856319589756
2000.7719612229935 0.999988559406752
2000.7739619959548 0.9999889513094549
2000.775962770917 0.9999883513992978
2000.7779635478798 0.9999881217890614
2000.7799643268443 0.9999886172062846
2000.7819651078087 0.9999890209866124
2000.783965890774 0.9999880923984908
2000.7859666757402 0.9999851757061456
2000.7879674627075 0.9999808760621955
2000.789968251675 0.9999769054499327
2000.7919690426434 0.9999751732451961
2000.7939698356126 0.9999767111472458
2000.795970630583 0.9999808866832721
2000.7979714275539 0.9999855232174173
2000.7999722265256 0.9999884902615203
2000.8019730274982 0.9999889605720991
2000.8039738304715 0.9999864741520028
2000.8059746354456 0.9999804033670066
2000.8079754424211 0.9999715917454409
2000.8099762513964 0.9999629190103776
2000.8119770623734 0.9999571103843504
2000.8139778753505 0.9999544760473514
2000.8159786903286 0.999953027410234
2000.8179795073077 0.999951394828299
2000.8199803262876 0.9999511508877598
2000.8219811472686 0.99995469651157
2000.8239819702499 0.9999618927954974
2000.8259827952318 0.9999690159396072
2000.8279836222155 0.9999703638040145
2000.8299844511994 0.999962671305349
2000.831985282184 0.999948877870607
2000.8339861151694 0.9999357627515103
2000.835986950156 0.9999284431373721
2000.8379877871434 0.9999287257755476
2000.8399886261318 0.9999361998338345
2000.8419894671204 0.9999482778174819
2000.84399031011 0.9999598377543938
2000.8459911551006 0.9999660137756136
2000.8479920020925 0.9999667677789715
2000.8499928510848 0.9999661011448141
2000.8519937020778 0.9999675103473816
2000.853994555072 0.999971930685811
2000.855995410067 0.9999779402740689
2000.8579962670626 0.9999829122666568
2000.8599971260594 0.9999849309317232
2000.861997987057 0.9999841928824141
2000.8639988500552 0.999982524774058
2000.8659997150544 0.9999817486590821
2000.8680005820545 0.9999824740202958
2000.8700014510555 0.9999837932891881
2000.872002322057 0.9999840893864915
2000.8740031950601 0.9999829092414085
2000.8760040700631 0.9999817476845746
2000.8780049470681 0.9999822395872162
2000.8800058260733 0.9999840560908799
2000.8820067070794 0.999984825028302
2000.8840075900869 0.9999816563692656
2000.886008475095 0.9999727022276974
2000.8880093621042 0.9999580948395891
2000.8900102511134 0.999941154791667
2000.892011142124 0.9999274314326893
2000.8940120351353 0.9999209919983588
2000.8960129301477 0.9999233380332502
2000.8980138271609 0.9999339364949087
2000.900014726175 0.9999496000199511
2000.90201562719 0.9999634840726116
2000.904016530206 0.9999671057863011
2000.906017435223 0.9999564581863012
2000.908018342241 0.9999369234156199
2000.9100192512599 0.999917744635144
2000.9120201622795 0.9999051897445647
2000.9140210752998 0.9999017758779115
2000.916021990322 0.9999077913200461
2000.918022907344 0.9999219655087956
2000.9200238263672 0.9999412203049514
2000.9220247473918 0.999960138452424
2000.9240256704163 0.9999739335940762
2000.9260265954426 0.9999821767835056
2000.9280275224694 0.9999868477290246
2000.9300284514975 0.999989368587637
2000.9320293825265 0.9999905124795351
2000.9340303155564 0.9999910659794198
2000.9360312505873 0.9999915968434132
2000.9380321876183 0.99999195995335
2000.9400331266515 0.9999913040409121
2000.9420340676843 0.9999885807202183
2000.9440350107188 0.9999834237563804
2000.9460359557547 0.9999767973328763
2000.9480369027913 0.999970459551475
2000.9500378518283 0.9999657066153794
2000.9520388028668 0.9999629663082661
2000.9540397559056 0.9999624901761085
2000.9560407109461 0.9999645725750513
2000.9580416679873 0.9999685627393328
2000.9600426270292 0.9999725147110686
2000.962043588072 0.99997498382922
2000.9640445511163 0.9999765925727144
2000.966045516161 0.9999785749747006
2000.9680464832072 0.9999804730745526
2000.9700474522538 0.999980217890794
2000.9720484233017 0.9999765231766576
2000.9740493963504 0.9999708575185676
2000.9760503713999 0.9999662189037201
2000.9780513484511 0.9999639692471008
2000.9800523275028 0.9999626069437051
2000.9820533085556 0.9999597213970792
2000.9840542916097 0.9999545834691016
2000.9860552766643 0.9999477692527811
2000.9880562637197 0.9999392839462719
2000.9900572527768 0.9999297662214632
2000.992058243834 0.9999222552544601
2000.9940592368928 0.9999197202125815
2000.996060231953 0.9999221239312092
2000.9980612290135 0.9999265727078975
2001.0000622280747 0.9999299575698068
2001.0020632291375 0.9999301552632667
2001.004064232201 0.9999241673343001
2001.0060652372658 0.9999112357376692
2001.0080662443318 0.9998967184443525
2001.0100672533981 0.9998864934747025
2001.0120682644658 0.9998833258708699
2001.0140692775344 0.9998878279349281
2001.0160702926044 0.9998993715055812
2001.018071309675 0.9999157094183936
2001.0200723287464 0.9999319468699304
2001.0220733498195 0.9999425258487497
2001.0240743728934 0.9999457817620984
2001.0260753979683 0.9999438442483359
2001.0280764250442 0.9999386281836102
2001.0300774541208 0.9999286041439173
2001.0320784851986 0.9999063134865133
2001.0340795182774 0.999867355041661
2001.0360805533578 0.9998267597279733
2001.0380815904384 0.9997954265986363
2001.0400826295206 0.9997735774374212
2001.0420836706037 0.9997589025734056
2001.0440847136879 0.999746239458102
2001.046085758773 0.9997296116863502
2001.0480868058594 0.9997123725675046
2001.0500878549465 0.9997055843722984
2001.052088906035 0.9997155413941686
2001.054089959124 0.9997426854547674
