Atmospheric Species: CO2
Metallicity: 1
C/O_Ratio: 0.5
Wavelength[nm] Flux_variation
1999.999812280322 1.0
2000.001812281134 0.9999999996286474
2000.003812283946 0.9999999992149489
2000.0058122887588 0.9999999988075792
2000.0078122955706 0.9999999985099286
2000.0098123043829 0.999999998349256
2000.0118123151951 0.9999999982354763
2000.0138123280071 0.9999999980957808
2000.0158123428193 0.9999999979185009
2000.017812359632 0.9999999977051038
2000.0198123784444 0.9999999974588949
2000.0218123992565 0.9999999971854084
2000.0238124220684 0.9999999968889232
2000.025812446881 0.9999999965854177
2000.0278124736938 0.9999999963067763
2000.0298125025063 0.9999999960629071
2000.0318125333185 0.9999999958238754
2000.033812566131 0.9999999955664326
2000.0358126009435 0.9999999952936229
2000.037812637756 0.9999999950157983
2000.0398126765688 0.9999999947353977
2000.0418127173812 0.99999999444689
2000.0438127601935 0.9999999941428492
2000.0458128050066 0.999999993820356
2000.0478128518196 0.99999999348771
2000.0498129006319 0.9999999931485791
2000.0518129514448 0.999999992769925
2000.053813004258 0.9999999923002922
2000.055813059071 0.9999999917144466
2000.0578131158836 0.9999999909159477
2000.0598131746967 0.999999989605514
2000.06181323551 0.9999999877456686
2000.0638132983227 0.9999999863731956
2000.0658133631362 0.9999999866508309
2000.0678134299496 0.9999999879632832
2000.0698134987629 0.9999999888673191
2000.0718135695763 0.9999999887470338
2000.0738136423897 0.9999999874346013
2000.0758137172033 0.9999999847366975
2000.0778137940172 0.9999999815987197
2000.079813872831 0.9999999808599113
2000.0818139536448 0.9999999832010841
2000.0838140364588 0.9999999858259052
2000.0858141212727 0.9999999871704105
2000.087814208087 0.9999999875599437
2000.089814296901 0.999999987542001
2000.091814387715 0.9999999873803921
2000.0938144805295 0.9999999871591957
2000.095814575344 0.9999999868978834
2000.0978146721586 0.9999999866014292
2000.0998147709731 0.9999999862866753
2000.101814871788 0.9999999859927853
2000.1038149746025 0.9999999857455485
2000.1058150794172 0.9999999855187679
2000.1078151862328 0.9999999852687468
2000.1098152950476 0.9999999849737209
2000.1118154058631 0.9999999846300732
2000.1138155186784 0.9999999842645598
2000.115815633494 0.9999999839436253
2000.1178157503095 0.9999999837000543
2000.1198158691257 0.9999999834838531
2000.121815989941 0.9999999832375274
2000.123816112757 0.9999999829546476
2000.1258162375732 0.999999982654055
2000.1278163643894 0.9999999823469166
2000.1298164932057 0.9999999820325063
2000.1318166240221 0.9999999817070169
2000.1338167568388 0.9999999813661584
2000.1358168916554 0.9999999809992404
2000.1378170284725 0.9999999805757076
2000.1398171672895 0.9999999800247099
2000.1418173081065 0.9999999792673333
2000.1438174509237 0.9999999783956277
2000.145817595741 0.9999999777595597
2000.1478177425586 0.9999999775298897
2000.1498178913766 0.9999999774071189
2000.1518180421942 0.999999977061939
2000.1538181950127 0.9999999763751632
2000.1558183498312 0.9999999751819384
2000.1578185066492 0.9999999727628015
2000.1598186654676 0.999999966758404
2000.1618188262864 0.999999951726847
2000.1638189891055 0.9999999230721346
2000.165819153924 0.9999998969346361
2000.1678193207435 0.9999999046968394
2000.1698194895628 0.9999999349894124
2000.1718196603822 0.9999999569339769
2000.1738198332023 0.9999999660752411
2000.1758200080221 0.999999968695991
2000.177820184842 0.9999999685673894
2000.1798203636622 0.9999999662765544
2000.1818205444827 0.9999999594444278
2000.183820727303 0.9999999410203511
2000.1858209121242 0.9999999018910984
2000.1878210989448 0.9999998588721908
2000.1898212877659 0.9999998629631331
2000.1918214785871 0.9999999077440586
2000.1938216714088 0.9999999428628158
2000.19582186623 0.9999999579435072
2000.1978220630526 0.9999999628316217
2000.1998222618745 0.9999999638864113
2000.2018224626968 0.9999999632123369
2000.2038226655195 0.999999961082187
2000.205822870342 0.9999999577502274
2000.2078230771644 0.9999999546048648
2000.2098232859878 0.9999999528232923
2000.2118234968113 0.9999999511129495
2000.213823709635 0.9999999469653029
2000.2158239244584 0.9999999378972907
2000.2178241412826 0.9999999179979335
2000.2198243601067 0.9999998648203194
2000.2218245809313 0.9999996788630265
2000.2238248037554 0.9999990340599932
2000.2258250285802 0.9999979097568297
2000.2278252554056 0.9999977382869545
2000.2298254842308 0.9999988120765392
2000.2318257150564 0.9999995963075076
2000.2338259478825 0.9999998420423809
2000.2358261827083 0.9999999092511022
2000.2378264195343 0.999999932984143
2000.2398266583607 0.9999999437860777
2000.2418268991873 0.9999999497587809
2000.2438271420144 0.9999999534763627
2000.2458273868415 0.999999955948298
2000.247827633669 0.9999999576516972
2000.2498278824967 0.999999958839766
2000.2518281333246 0.9999999596680135
2000.2538283861531 0.9999999602413627
2000.255828640981 0.9999999606364112
2000.2578288978098 0.9999999608552479
2000.2598291566387 0.9999999607964858
2000.2618294174679 0.9999999604172833
2000.2638296802972 0.999999960003861
2000.2658299451268 0.9999999600255796
2000.267830211957 0.9999999605086328
2000.2698304807873 0.9999999610113103
2000.271830751618 0.9999999612533229
2000.2738310244486 0.9999999612639391
2000.2758312992798 0.9999999611300846
2000.277831576111 0.9999999608897294
2000.2798318549428 0.9999999605836767
2000.2818321357747 0.9999999602812226
2000.283832418607 0.9999999600158409
2000.2858327034396 0.9999999597524943
2000.2878329902726 0.9999999594946926
2000.2898332791053 0.999999959361946
2000.2918335699385 0.9999999593827433
2000.2938338627723 0.9999999594052569
2000.2958341576061 0.9999999593254848
2000.2978344544404 0.9999999591644079
2000.299834753275 0.9999999589673206
2000.30183505411 0.9999999587562043
2000.3038353569448 0.9999999585355434
2000.3058356617803 0.9999999583037262
2000.3078359686162 0.9999999580589558
2000.3098362774524 0.9999999578034651
2000.3118365882883 0.9999999575437124
2000.313836901125 0.9999999572826027
2000.3158372159623 0.9999999570135153
2000.3178375327993 0.9999999567204672
2000.319837851637 0.9999999563636447
2000.321838172475 0.9999999558740977
2000.3238384953136 0.9999999552352844
2000.3258388201518 0.9999999546239827
2000.3278391469905 0.9999999543481293
2000.3298394758299 0.9999999544456991
2000.331839806669 0.9999999545937295
2000.3338401395092 0.9999999545608808
2000.3358404743494 0.9999999543612782
2000.33784081119 0.9999999540665835
2000.3398411500311 0.9999999537225136
2000.3418414908724 0.9999999533848326
2000.3438418337141 0.9999999530790863
2000.3458421785558 0.9999999527365997
2000.3478425253984 0.9999999522043347
2000.3498428742414 0.9999999513593557
2000.351843225084 0.9999999503098275
2000.353843577928 0.9999999493435074
2000.3558439327714 0.9999999482316216
2000.3578442896157 0.999999946281179
2000.3598446484605 0.9999999441772848
2000.361845009305 0.9999999440384318
2000.3638453721503 0.9999999460594619
2000.3658457369957 0.9999999481909182
2000.3678461038414 0.9999999492725445
2000.3698464726879 0.9999999495503895
2000.3718468435345 0.9999999494865869
2000.3738472163816 0.999999949303532
2000.3758475912289 0.9999999490731171
2000.3778479680766 0.9999999488162664
2000.3798483469245 0.9999999485358531
2000.3818487277726 0.9999999482189469
2000.3838491106217 0.9999999478377771
2000.3858494954707 0.9999999473875623
2000.3878498823208 0.999999946955091
2000.389850271171 0.999999946675957
2000.391850662021 0.9999999465220316
2000.3938510548717 0.9999999462871046
2000.3958514497233 0.9999999458230661
2000.3978518465744 0.9999999452454509
2000.3998522454267 0.9999999449138852
2000.4018526462794 0.9999999448408663
2000.4038530491318 0.9999999447421279
2000.405853453985 0.999999944539573
2000.407853860839 0.9999999442624676
2000.4098542696927 0.999999943936436
2000.4118546805466 0.9999999435598462
2000.4138550934015 0.9999999430827395
2000.4158555082572 0.9999999423870914
2000.4178559251125 0.9999999412762465
2000.4198563439686 0.9999999398787321
2000.421856764825 0.9999999385581249
2000.423857187682 0.9999999359770774
2000.425857612539 0.9999999283647754
2000.427858039397 0.9999999088761947
2000.4298584682556 0.9999998737557083
2000.4318588991136 0.9999998476992426
2000.4338593319726 0.9999998643608213
2000.4358597668324 0.9999999006570409
2000.4378602036923 0.9999999238044633
2000.4398606425525 0.9999999332274749
2000.4418610834134 0.9999999364834671
2000.4438615262745 0.9999999376069171
2000.4458619711359 0.999999937967407
2000.4478624179985 0.9999999379487
2000.449862866861 0.9999999377381639
2000.4518633177238 0.9999999375586333
2000.453863770587 0.9999999375141664
2000.4558642254513 0.9999999374849717
2000.4578646823156 0.999999937368441
2000.4598651411802 0.9999999372132029
2000.4618656020457 0.9999999370791058
2000.4638660649114 0.9999999369463561
2000.4658665297777 0.9999999367751627
2000.4678669966447 0.9999999365601052
2000.4698674655117 0.9999999363154382
2000.4718679363796 0.9999999360506334
2000.4738684092474 0.9999999357696089
2000.475868884116 0.9999999354842235
2000.477869360985 0.9999999352114645
2000.4798698398545 0.9999999349501333
2000.4818703207245 0.999999934678564
2000.483870803595 0.9999999343758454
2000.485871288466 0.9999999340295287
2000.4878717753377 0.999999933637213
2000.4898722642095 0.9999999332096722
2000.491872755082 0.9999999327669638
2000.4938732479552 0.9999999323655542
2000.4958737428285 0.9999999320938482
2000.4978742397027 0.9999999319267947
2000.4998747385769 0.9999999317320293
2000.5018752394521 0.9999999314447998
2000.5038757423272 0.9999999310766539
2000.5058762472029 0.9999999306440337
2000.5078767540795 0.9999999301439478
2000.509877262956 0.9999999295511676
2000.5118777738342 0.9999999287998647
2000.5138782867118 0.9999999277244698
2000.5158788015904 0.9999999258789394
2000.5178793184689 0.9999999221867449
2000.519879837349 0.9999999145944429
2000.5218803582286 0.99999989922066
2000.5238808811096 0.999999867445203
2000.5258814059907 0.9999998163689902
2000.5278819328719 0.9999997898556952
2000.5298824617544 0.99999982725361
2000.5318829926364 0.9999998796056901
2000.5338835255197 0.9999999079375348
2000.5358840604035 0.9999999186456804
2000.537884597288 0.9999999223525924
2000.5398851361724 0.9999999237393218
2000.5418856770577 0.999999924331776
2000.5438862199437 0.9999999245975307
2000.54588676483 0.9999999247017183
2000.5478873117172 0.9999999247043869
2000.5498878606047 0.9999999246219831
2000.5518884114929 0.9999999244537581
2000.5538889643813 0.9999999241775942
2000.5558895192703 0.9999999237630958
2000.5578900761602 0.9999999232403101
2000.5598906350506 0.9999999227644263
2000.5618911959411 0.9999999225168658
2000.5638917588328 0.9999999224948969
2000.5658923237245 0.9999999225406957
2000.567892890617 0.9999999225211649
2000.5698934595102 0.9999999223942917
2000.5718940304037 0.9999999221834871
2000.573894603298 0.9999999219239387
2000.575895178193 0.9999999216289417
2000.5778957550883 0.9999999212867007
2000.5798963339842 0.999999920890386
2000.5818969148809 0.9999999204912597
2000.5838974977776 0.9999999201764687
2000.5858980826756 0.9999999199584859
2000.5878986695739 0.9999999197619667
2000.589899258473 0.9999999195218379
2000.591899849372 0.9999999192251695
2000.5939004422726 0.9999999188722359
2000.5959010371732 0.9999999184244429
2000.5979016340743 0.9999999177591766
2000.599902232976 0.9999999168525013
2000.6019028338785 0.9999999163072039
2000.6039034367816 0.999999916431886
2000.605904041685 0.9999999165235229
2000.6079046485897 0.9999999163003375
2000.6099052574943 0.9999999158842253
2000.6119058683998 0.9999999153394279
2000.613906481306 0.9999999147412252
2000.6159070962128 0.9999999142140524
2000.61790771312 0.9999999138006692
2000.6199083320282 0.999999913408801
2000.621908952937 0.999999912920736
2000.623909575846 0.9999999122621303
2000.625910200756 0.9999999114024971
2000.627910827666 0.9999999104457722
2000.6299114565775 0.9999999096015361
2000.6319120874891 0.9999999087821495
2000.633912720402 0.9999999077196698
2000.6359133553146 0.9999999063021132
2000.6379139922285 0.9999999044657293
2000.6399146311426 0.9999999020679426
2000.6419152720573 0.9999998988283677
2000.643915914973 0.9999998942054472
2000.645916559889 0.9999998870279029
2000.6479172068057 0.9999998742679184
2000.649917855723 0.9999998461777604
2000.6519185066409 0.9999997644835096
2000.6539191595598 0.9999994571350262
2000.6559198144796 0.9999985297325598
2000.6579204713996 0.9999974608769865
2000.65992113032 0.9999978680570715
2000.6619217912419 0.9999990590146197
2000.6639224541639 0.9999996513559468
2000.6659231190863 0.9999998128395248
2000.6679237860099 0.9999998597601127
2000.6699244549338 0.9999998778598752
2000.6719251258585 0.9999998866771592
2000.6739257987842 0.9999998916872925
2000.67592647371 0.9999998946907519
2000.6779271506366 0.9999998965284403
2000.6799278295641 0.9999998978618098
2000.6819285104925 0.9999998990355937
2000.6839291934211 0.9999998999017257
2000.6859298783502 0.9999999001228146
2000.6879305652806 0.9999998992323094
2000.6899312542112 0.9999998965293841
2000.691931945143 0.9999998920964887
2000.6939326380752 0.9999998881282416
2000.6959333330078 0.9999998863540044
2000.6979340299417 0.9999998853397767
2000.6999347288759 0.9999998847053004
2000.7019354298113 0.9999998843481022
2000.7039361327465 0.9999998775308854
2000.705936837683 0.9999998527999496
2000.7079375446203 0.9999998110739604
2000.7099382535578 0.9999997930115182
2000.7119389644963 0.9999998247987216
2000.7139396774357 0.9999998650350497
2000.7159403923756 0.9999998862770719
2000.7179411093164 0.9999998942805817
2000.7199418282578 0.9999998972137364
2000.7219425491999 0.9999998985438764
2000.7239432721424 0.99999989923132
2000.7259439970862 0.9999998995409525
2000.7279447240305 0.9999998995927811
2000.7299454529755 0.99999989947402
2000.7319461839213 0.999999899325415
2000.7339469168678 0.9999998992674431
2000.735947651815 0.9999998992408591
2000.7379483887632 0.9999998990919563
2000.7399491277117 0.999999898745067
2000.741949868661 0.9999998982803955
2000.7439506116116 0.9999998979428479
2000.745951356562 0.9999998978925979
2000.7479521035139 0.9999998979727531
2000.7499528524665 0.9999998979663766
2000.7519536034195 0.9999998978303818
2000.7539543563735 0.9999998976124614
2000.7559551113281 0.9999998973672279
2000.7579558682833 0.9999998971421408
2000.75995662724 0.9999998969392977
2000.7619573881968 0.9999998967228644
2000.7639581511546 0.9999998964772253
2000.7659589161133 0.9999998962232725
2000.7679596830724 0.9999998959876196
2000.7699604520324 0.9999998957647187
2000.7719612229935 0.9999998955322765
2000.7739619959548 0.999999895284222
2000.775962770917 0.9999998950278303
2000.7779635478798 0.9999998947677767
2000.7799643268443 0.999999894498888
2000.7819651078087 0.9999998942020144
2000.783965890774 0.9999998938364483
2000.7859666757402 0.9999998933674006
2000.7879674627075 0.9999998928704757
2000.789968251675 0.9999998925428436
2000.7919690426434 0.9999998924465895
2000.7939698356126 0.9999998924059297
2000.795970630583 0.9999998922720978
2000.7979714275539 0.9999998920478628
2000.7999722265256 0.9999998917723031
2000.8019730274982 0.9999998914270805
2000.8039738304715 0.9999998909334167
2000.8059746354456 0.999999890270115
2000.8079754424211 0.999999889659978
2000.8099762513964 0.9999998894336967
2000.8119770623734 0.9999998895486286
2000.8139778753505 0.9999998896578551
2000.8159786903286 0.9999998895881304
2000.8179795073077 0.999999889383947
2000.8199803262876 0.9999998891215718
2000.8219811472686 0.9999998888444616
2000.8239819702499 0.9999998885647559
2000.8259827952318 0.999999888269892
2000.8279836222155 0.9999998879554675
2000.8299844511994 0.9999998876498221
2000.831985282184 0.9999998873783958
2000.8339861151694 0.9999998871233508
2000.835986950156 0.99999988685486
2000.8379877871434 0.9999998865675939
2000.8399886261318 0.9999998862672985
2000.8419894671204 0.9999998859530206
2000.84399031011 0.9999998856216015
2000.8459911551006 0.9999998852747072
2000.8479920020925 0.9999998849082262
2000.8499928510848 0.9999998845016713
2000.8519937020778 0.9999998840444939
2000.853994555072 0.9999998835594369
2000.855995410067 0.9999998830659987
2000.8579962670626 0.9999998825548376
2000.8599971260594 0.9999998819587257
2000.861997987057 0.9999998811630195
2000.8639988500552 0.9999998799947523
2000.8659997150544 0.9999998780247843
2000.8680005820545 0.9999998739304539
2000.8700014510555 0.9999998639925984
2000.872002322057 0.9999998399193376
2000.8740031950601 0.999999790305837
2000.8760040700631 0.9999997291886934
2000.8780049470681 0.9999997242007999
2000.8800058260733 0.9999997846556002
2000.8820067070794 0.999999838528638
2000.8840075900869 0.9999998629969497
2000.886008475095 0.999999871902216
2000.8880093621042 0.9999998751864773
2000.8900102511134 0.9999998765634098
2000.892011142124 0.9999998772077983
2000.8940120351353 0.9999998775095051
2000.8960129301477 0.999999877622073
2000.8980138271609 0.9999998776220285
2000.900014726175 0.9999998775580915
2000.90201562719 0.999999877457376
2000.904016530206 0.9999998773285854
2000.906017435223 0.9999998771745241
2000.908018342241 0.9999998769975678
2000.9100192512599 0.9999998768004172
2000.9120201622795 0.9999998765873752
2000.9140210752998 0.99999987636269
2000.916021990322 0.9999998761284415
2000.918022907344 0.9999998758855135
2000.9200238263672 0.9999998756356852
2000.9220247473918 0.9999998753799054
2000.9240256704163 0.9999998751152104
2000.9260265954426 0.9999998748415857
2000.9280275224694 0.9999998745697652
2000.9300284514975 0.999999874307568
2000.9320293825265 0.9999998740469753
2000.9340303155564 0.9999998737800333
2000.9360312505873 0.9999998735082359
2000.9380321876183 0.9999998732255739
2000.9400331266515 0.9999998729025912
2000.9420340676843 0.999999872469317
2000.9440350107188 0.999999871823041
2000.9460359557547 0.9999998709902617
2000.9480369027913 0.9999998703235955
2000.9500378518283 0.9999998701803448
2000.9520388028668 0.9999998704018979
2000.9540397559056 0.9999998705715255
2000.9560407109461 0.9999998705135816
2000.9580416679873 0.9999998702964538
2000.9600426270292 0.9999998700189461
2000.962043588072 0.9999998696985275
2000.9640445511163 0.9999998692691384
2000.966045516161 0.9999998686544773
2000.9680464832072 0.9999998679371426
2000.9700474522538 0.9999998674310598
2000.9720484233017 0.9999998673174264
2000.9740493963504 0.9999998673548828
2000.9760503713999 0.9999998672425561
2000.9780513484511 0.9999998669217062
2000.9800523275028 0.9999998664431434
2000.9820533085556 0.9999998658084365
2000.9840542916097 0.9999998649227848
2000.9860552766643 0.999999863625153
2000.9880562637197 0.9999998617554418
2000.9900572527768 0.9999998587582841
2000.992058243834 0.9999998518931207
2000.9940592368928 0.9999998333351755
2000.996060231953 0.9999997924973935
2000.9980612290135 0.9999997456335805
2001.0000622280747 0.9999997482531646
2001.0020632291375 0.9999997966691734
2001.004064232201 0.9999998356383362
2001.0060652372658 0.999999852956573
2001.0080662443318 0.9999998592085648
2001.0100672533981 0.9999998614222596
2001.0120682644658 0.9999998623250042
2001.0140692775344 0.9999998627876033
2001.0160702926044 0.999999863022848
2001.018071309675 0.9999998631131611
2001.0200723287464 0.9999998631966128
2001.0220733498195 0.9999998633755623
2001.0240743728934 0.9999998635990566
2001.0260753979683 0.9999998637519089
2001.0280764250442 0.9999998637485766
2001.0300774541208 0.9999998635379606
2001.0320784851986 0.9999998631447784
2001.0340795182774 0.999999862761711
2001.0360805533578 0.9999998626760966
2001.0380815904384 0.999999862903987
2001.0400826295206 0.9999998631752494
2001.0420836706037 0.9999998632984494
2001.0440847136879 0.9999998632190459
2001.046085758773 0.9999998628236537
2001.0480868058594 0.9999998617538338
2001.0500878549465 0.9999998595693561
2001.052088906035 0.9999998568839724
2001.054089959124 0.9999998560699749
2001.0560910142144 0.9999998578853356
