Atmospheric Species: H2O
Metallicity: 1
C/O_Ratio: 0.5
Wavelength[nm] Flux_variation
1499.9999679042603 0.9999159952788385
1500.0014679049782 0.999919528451021
1500.0029679071963 0.9999208356918882
1500.0044679109142 0.9999250852692454
1500.0059679161322 0.9999339269229542
1500.00746792285 0.9999463974203949
1500.0089679310681 0.9999605344030374
1500.010467940786 0.9999738242084221
1500.011967952004 0.9999837386490256
1500.013467964722 0.9999895843646937
1500.01496797894 0.9999925709288445
1500.0164679946577 0.9999940994395893
1500.0179680118756 0.9999949918607322
1500.0194680305935 0.9999956576579997
1500.0209680508115 0.999996269939832
1500.0224680725294 0.9999967131080325
1500.0239680957475 0.9999965187002973
1500.0254681204656 0.9999948585180098
1500.0269681466839 0.9999904663978907
1500.028468174402 0.9999818869287668
1500.02996820362 0.9999688050962797
1500.0314682343383 0.9999531477161847
1500.0329682665563 0.9999380096264723
1500.0344683002745 0.9999259744068488
1500.035968335493 0.9999176708966869
1500.0374683722112 0.9999108905189634
1500.0389684104296 0.9999028205252871
1500.040468450148 0.9998946118777373
1500.0419684913663 0.9998907772026441
1500.0434685340847 0.9998946140693513
1500.0449685783033 0.9999063985047496
1500.0464686240218 0.999923645474257
1500.0479686712404 0.9999418993081133
1500.0494687199591 0.999955335760867
1500.0509687701776 0.9999579982052005
1500.0524688218966 0.9999499424538868
1500.0539688751153 0.999937262711983
1500.0554689298342 0.9999254548785086
1500.056968986053 0.9999181264723669
1500.0584690437718 0.9999172365871078
1500.0599691029909 0.9999225502076698
1500.06146916371 0.9999314127330858
1500.062969225929 0.999940174611776
1500.0644692896483 0.999947228358736
1500.0659693548675 0.9999536559470124
1500.0674694215868 0.9999603250740309
1500.0689694898062 0.999966057519235
1500.0704695595257 0.9999687897646223
1500.0719696307453 0.9999679833840999
1500.073469703465 0.9999655149617248
1500.0749697776846 0.999964221605951
1500.0764698534044 0.9999658200183243
1500.0779699306242 0.9999697947189863
1500.079470009344 0.9999737629906763
1500.080970089564 0.9999749776203388
1500.082470171284 0.9999717534133253
1500.0839702545043 0.9999637528860325
1500.0854703392247 0.9999514556600002
1500.0869704254449 0.9999353822769221
1500.0884705131652 0.9999162287022848
1500.0899706023858 0.9998966823434118
1500.0914706931064 0.9998814783774386
1500.092970785327 0.9998744896554107
1500.0944708790478 0.9998772638829104
1500.0959709742688 0.9998892878008957
1500.0974710709895 0.9999078173083067
1500.0989711692107 0.99992801194708
1500.1004712689316 0.9999448640014452
1500.101971370153 0.9999543958135381
1500.1034714728744 0.99995509346989
1500.1049715770957 0.9999504057083978
1500.1064716828173 0.9999463268841171
1500.1079717900388 0.9999466746849012
1500.1094718987608 0.9999509204129796
1500.1109720089826 0.9999549562937291
1500.1124721207048 0.9999544718351593
1500.113972233927 0.9999483610073358
1500.115472348649 0.9999380794751652
1500.1169724648714 0.999924207928893
1500.1184725825938 0.9999051185361528
1500.1199727018163 0.999880940551162
1500.121472822539 0.9998575520034017
1500.1229729447618 0.9998412342075147
1500.1244730684848 0.999834792538984
1500.125973193708 0.9998390687805621
1500.1274733204311 0.9998536973863626
1500.1289734486545 0.9998767873706336
1500.1304735783779 0.9999030885506932
1500.1319737096017 0.9999252262114257
1500.1334738423252 0.999939635160719
1500.1349739765492 0.999946906422585
1500.1364741122732 0.9999500539673633
1500.1379742494973 0.9999521241889957
1500.1394743882215 0.9999538236896519
1500.140974528446 0.999953717437462
1500.1424746701703 0.9999507252306942
1500.143974813395 0.9999462860915324
1500.1454749581198 0.9999430739435838
1500.1469751043446 0.9999427089870684
1500.14847525207 0.9999449560934555
1500.1499754012953 0.9999470961261453
1500.1514755520207 0.9999437065679132
1500.152975704246 0.9999310960517499
1500.1544758579719 0.9999125711466645
1500.155976013198 0.9998949365310136
1500.157476169924 0.9998835234557744
1500.1589763281502 0.9998803191077487
1500.1604764878764 0.9998831280649153
1500.1619766491028 0.9998853636502567
1500.1634768118297 0.9998821688416004
1500.1649769760566 0.9998776466665847
1500.1664771417836 0.9998784966698072
1500.1679773090107 0.9998874145870603
1500.169477477738 0.9999027907693626
1500.1709776479654 0.9999188827992277
1500.172477819693 0.9999283039474993
1500.1739779929208 0.9999295574576981
1500.1754781676489 0.9999280221608599
1500.176978343877 0.9999275669641634
1500.1784785216055 0.9999275418950477
1500.179978700834 0.9999258310504983
1500.1814788815627 0.9999231280825762
1500.1829790637914 0.9999229228853931
1500.1844792475206 0.9999278350439467
1500.18597943275 0.9999379479912353
1500.1874796194795 0.9999514667806351
1500.188979807709 0.9999658428314449
1500.190479997439 0.9999783036390135
1500.191980188669 0.999986449370174
1500.1934803813992 0.999989538574794
1500.1949805756296 0.9999884742123403
1500.1964807713603 0.9999845768650545
1500.197980968591 0.9999788196572341
1500.199481167322 0.9999716943456297
1500.2009813675531 0.9999632517528669
1500.2024815692848 0.9999526817126047
1500.2039817725163 0.9999380842815547
1500.205481977248 0.999918818260299
1500.20698218348 0.9998986652495068
1500.2084823912123 0.9998838152273098
1500.2099826004448 0.9998784508343217
1500.2114828111773 0.9998835637714334
1500.2129830234103 0.9998971609811945
1500.2144832371434 0.9999146114631942
1500.2159834523766 0.999931033699061
1500.2174836691104 0.9999445033433902
1500.218983887344 0.9999544735386371
1500.2204841070777 0.9999582354408426
1500.221984328312 0.999953182758256
1500.2234845510463 0.9999418373270856
1500.224984775281 0.9999291222617164
1500.2264850010158 0.9999174371324998
1500.227985228251 0.9999055498194955
1500.2294854569864 0.999890549481385
1500.2309856872216 0.999873442911304
1500.2324859189575 0.9998611448905618
1500.2339861521934 0.9998605068615757
1500.2354863869296 0.9998741864365258
1500.236986623166 0.9999004060434635
1500.2384868609029 0.9999326743043175
1500.23998710014 0.9999606637692092
1500.241487340877 0.9999757908175334
1500.2429875831142 0.9999759816467036
1500.2444878268518 0.9999642540673569
1500.2459880720896 0.9999468830652902
1500.247488318828 0.9999320317739603
1500.2489885670661 0.9999260549527081
1500.2504888168048 0.9999305654340715
1500.2519890680437 0.9999420737616683
1500.2534893207828 0.9999542919663494
1500.2549895750221 0.9999625067262445
1500.256489830762 0.999965204349417
1500.2579900880019 0.9999619454049226
1500.259490346742 0.9999524461866061
1500.2609906069824 0.9999369375887894
1500.2624908687233 0.9999157083610893
1500.2639911319643 0.9998906702796391
1500.2654913967056 0.9998674336268115
1500.266991662947 0.9998517039764403
1500.268491930689 0.9998462843169102
1500.269992199931 0.999851944285306
1500.2714924706734 0.9998679726377548
1500.272992742916 0.9998916547377734
1500.2744930166587 0.9999172762188321
1500.2759932919018 0.9999380127172905
1500.2774935686452 0.9999472906688437
1500.2789938468889 0.9999424120103132
1500.280494126633 0.9999303176834956
1500.281994407877 0.9999181655008021
1500.2834946906214 0.9999098514363657
1500.284994974866 0.9999074516182631
1500.2864952606112 0.9999108757055936
1500.2879955478563 0.9999176457515221
1500.2894958366019 0.9999244955552411
1500.2909961268479 0.9999305112074416
1500.2924964185943 0.9999375512918565
1500.2939967118407 0.9999473462658304
1500.2954970065875 0.99995989996202
1500.2969973028346 0.9999736590574431
1500.298497600582 0.9999859050904069
1500.2999978998298 0.9999943272966381
1500.3014982005775 0.9999986936007444
1500.302998502826 1.0
1500.3044988065747 0.9999989473605795
1500.3059991118237 0.9999956430919137
1500.307499418573 0.9999902386817017
1500.3089997268223 0.9999835223750687
1500.3105000365722 0.9999768486119663
1500.3120003478223 0.999971685622783
1500.3135006605728 0.9999690493099418
1500.3150009748235 0.9999689268776802
1500.3165012905747 0.9999702523460783
1500.3180016078259 0.9999719536671422
1500.3195019265777 0.9999740764346127
1500.3210022468297 0.9999774123878509
1500.3225025685822 0.999982094535195
1500.3240028918349 0.9999869009554054
1500.3255032165878 0.999989889228406
1500.3270035428409 0.9999895649898686
1500.3285038705947 0.999985188696387
1500.3300041998486 0.9999759650530138
1500.331504530603 0.9999604997108055
1500.3330048628575 0.9999374634333709
1500.3345051966126 0.9999073165733109
1500.336005531868 0.999874997211117
1500.3375058686236 0.9998482486696103
1500.3390062068795 0.9998328796496013
1500.3405065466359 0.9998317221170453
1500.3420068878925 0.9998448077559198
1500.3435072306495 0.9998689349382143
1500.345007574907 0.9998958003785996
1500.3465079206646 0.9999124717280768
1500.3480082679225 0.9999149878819518
1500.3495086166809 0.9999120234312638
1500.3510089669396 0.999911320652944
1500.3525093186988 0.9999157723706881
1500.354009671958 0.9999250626431743
1500.3555100267179 0.9999361052105509
1500.3570103829782 0.9999417121084513
1500.3585107407384 0.9999343161804849
1500.3600110999994 0.9999171805361273
1500.3615114607605 0.9998995116381197
1500.3630118230221 0.9998877958361642
1500.3645121867842 0.9998851396046881
1500.3660125520464 0.9998920015074978
1500.367512918809 0.999906221441235
1500.3690132870722 0.9999223708135591
1500.3705136568356 0.9999329218430469
1500.3720140280993 0.999933629214483
1500.3735144008635 0.9999264824001207
1500.3750147751282 0.9999133288303488
1500.376515150893 0.9998934653917465
1500.3780155281584 0.9998708701657418
1500.379515906924 0.9998537226544335
1500.38101628719 0.9998473030032398
1500.3825166689564 0.9998511971719183
1500.3840170522233 0.9998578245941854
1500.3855174369903 0.9998576516983085
1500.387017823258 0.999852711950284
1500.3885182110257 0.9998517630065582
1500.3900186002943 0.9998594918577693
1500.3915189910629 0.9998763369704938
1500.393019383332 0.9998995754561703
1500.3945197771016 0.9999239191919805
1500.3960201723714 0.9999455613518942
1500.3975205691418 0.999962931810081
1500.3990209674125 0.9999744265741697
1500.4005213671837 0.9999811177780392
1500.4020217684551 0.9999854271641988
1500.403522171227 0.9999882898458597
1500.4050225754995 0.999989579973202
1500.4065229812722 0.9999890877931912
1500.4080233885454 0.9999866013208393
1500.4095237973188 0.9999816892472069
1500.4110242075928 0.9999742796496794
1500.412524619367 0.9999656507070334
1500.4140250326418 0.9999582144886955
1500.415525447417 0.99995422768387
1500.4170258636925 0.9999547875699147
1500.4185262814688 0.9999594243407083
1500.420026700745 0.9999661082643995
1500.421527121522 0.9999716146652695
1500.4230275437992 0.9999727607226195
1500.424527967577 0.9999686626854831
1500.426028392855 0.9999614424908478
1500.4275288196334 0.9999537738318297
1500.4290292479125 0.9999464218154208
1500.430529677692 0.999937070509488
1500.4320301089717 0.9999198308503974
1500.433530541752 0.9998901297400413
1500.4350309760325 0.9998536071207053
1500.4365314118138 0.9998205678075429
1500.4380318490953 0.9997978004857019
1500.4395322878772 0.9997893457354489
1500.4410327281598 0.9997966393884407
1500.4425331699426 0.999818346278088
1500.4440336132259 0.9998502459371732
1500.4455340580098 0.9998836299713204
1500.447034504294 0.9999013876641865
1500.4485349520787 0.9998976272869231
1500.450035401364 0.9998872866883223
1500.4515358521494 0.999882233664286
1500.4530363044355 0.9998860689004856
1500.454536758222 0.999898479227951
1500.4560372135088 0.999916351391759
1500.4575376702962 0.9999332251399821
1500.459038128584 0.9999383608812877
1500.4605385883724 0.9999242576864026
1500.4620390496611 0.9998998064354164
1500.4635395124503 0.9998787242881566
1500.4650399767402 0.9998686316698263
1500.4665404425302 0.9998718334502866
1500.4680409098207 0.9998856028162946
1500.469541378612 0.9998992878501977
1500.4710418489035 0.9998993522556057
1500.4725423206953 0.9998874232115428
1500.4740427939878 0.9998754857998989
1500.4755432687807 0.9998708060520446
1500.4770437450743 0.9998750749583484
1500.4785442228683 0.9998861160922647
1500.4800447021626 0.9998954497427632
1500.4815451829575 0.9998892794670252
1500.4830456652528 0.9998683079458531
1500.4845461490488 0.9998477334245264
1500.4860466343453 0.9998363340720289
1500.487547121142 0.9998367471609527
1500.4890476094392 0.9998490539316587
1500.490548099237 0.9998714520757793
1500.4920485905352 0.999899615783715
1500.493549083334 0.9999265103135248
1500.4950495776336 0.9999469031141247
1500.4965500734331 0.9999596956756273
1500.4980505707333 0.9999650442454587
1500.4995510695342 0.9999628013763213
1500.5010515698355 0.9999534867841887
1500.5025520716372 0.999940150183875
1500.5040525749396 0.9999273065138992
1500.5055530797424 0.9999183002094681
1500.507053586046 0.9999145201136949
1500.5085540938494 0.9999159246149927
1500.5100546031538 0.999921813376271
1500.5115551139584 0.9999313137906461
1500.5130556262636 0.999943534704022
1500.5145561400695 0.9999573488619484
1500.516056655376 0.9999706823018988
1500.5175571721827 0.9999808188119644
1500.5190576904902 0.9999867319319936
1500.520558210298 0.9999895430273673
1500.5220587316066 0.9999906784224915
1500.5235592544157 0.9999909164052103
1500.5250597787253 0.9999904923080899
1500.5265603045355 0.9999893149011563
1500.528060831846 0.999987026941417
1500.529561360657 0.9999830270273744
1500.5310618909684 0.9999766354736213
1500.5325624227803 0.9999674954523776
1500.5340629560928 0.9999558813519225
1500.5355634909058 0.9999424006973315
1500.5370640272195 0.9999276181650024
1500.5385645650335 0.9999122937687799
1500.5400651043483 0.9998968028755129
1500.5415656451635 0.9998799847451576
1500.543066187479 0.9998614055051978
1500.5445667312956 0.9998448912888074
1500.5460672766128 0.999836079357049
1500.5475678234304 0.999838336541936
1500.5490683717485 0.9998519848584582
1500.5505689215672 0.9998748742412062
1500.5520694728864 0.9999023196656565
1500.5535700257062 0.9999283498298447
1500.5550705800265 0.999949910761505
1500.5565711358472 0.9999655048612565
1500.5580716931686 0.9999740955309262
1500.5595722519906 0.9999779296162289
1500.561072812313 0.9999796301834789
1500.562573374136 0.9999798144740434
1500.5640739374594 0.9999776354640912
1500.5655745022834 0.9999717742533692
1500.5670750686083 0.9999605247194135
1500.5685756364337 0.9999419042752621
1500.5700762057595 0.9999169012845525
1500.571576776586 0.999892408709619
1500.573077348913 0.9998768345070925
1500.5745779227407 0.9998749379765554
1500.5760784980687 0.9998873480292635
1500.5775790748976 0.9999107669626524
1500.579079653227 0.999937523494093
1500.580580233057 0.9999579463695304
1500.5820808143874 0.9999661056904132
1500.5835813972183 0.9999613298326405
1500.5850819815498 0.999946878546819
1500.5865825673823 0.999927929499741
1500.5880831547152 0.999907768024584
1500.5895837435485 0.9998897422226437
1500.5910843338825 0.9998780319925851
1500.592584925717 0.9998752467457321
1500.5940855190522 0.999881913241352
1500.5955861138882 0.9998966202176636
1500.5970867102244 0.9999157797299473
1500.5985873080613 0.9999351017320498
1500.6000879073988 0.9999515511815062
1500.601588508237 0.9999619073474814
1500.6030891105759 0.9999645717447917
1500.6045897144152 0.9999623568053021
1500.6060903197551 0.9999594713887915
1500.6075909265958 0.9999588734214389
1500.6090915349369 0.9999612319323405
1500.6105921447786 0.9999648994877083
1500.612092756121 0.9999670844330135
1500.613593368964 0.9999656568828429
1500.6150939833076 0.9999605337690555
1500.6165945991518 0.9999536268340419
1500.6180952164966 0.9999473785608748
1500.6195958353421 0.9999433438467704
1500.6210964556883 0.9999415732319137
1500.6225970775351 0.9999406774282377
1500.6240977008824 0.9999389956941186
1500.6255983257304 0.9999365043252184
1500.627098952079 0.9999350949305934
1500.6285995799283 0.9999364338179013
1500.630100209278 0.9999402372994236
1500.6316008401286 0.9999447035793648
1500.63310147248 0.9999481847251253
1500.6346021063314 0.9999502141923508
1500.636102741684 0.9999510374388163
1500.637603378537 0.9999507925379624
1500.6391040168905 0.9999494656222546
1500.640604656745 0.9999472576715673
1500.6421052980998 0.999944598948274
1500.6436059409555 0.9999417529664851
1500.6451065853116 0.9999383953706031
1500.6466072311684 0.99993347601103
1500.648107878526 0.9999256078139451
1500.649608527384 0.9999138083629067
1500.651109177743 0.9998983614570908
1500.6526098296024 0.99988223526579
1500.6541104829626 0.9998702138190559
1500.6556111378231 0.999865609706156
1500.6571117941846 0.9998691440646089
1500.6586124520468 0.9998789341390475
1500.6601131114094 0.9998900674995772
1500.6616137722729 0.9998962541281702
1500.6631144346368 0.9998934558211838
1500.6646150985016 0.9998778577860996
1500.666115763867 0.9998431456198096
1500.6676164307332 0.9997922356196257
1500.6691170990998 0.9997383104005959
1500.6706177689673 0.999693515128833
1500.6721184403355 0.9996644227694487
1500.6736191132043 0.9996535059865976
1500.6751197875737 0.9996613829929463
1500.676620463444 0.9996871138698595
1500.6781211408147 0.999723297304772
1500.6796218196862 0.9997322919209713
1500.681122500058 0.999691504948365
1500.6826231819311 0.9996491010636033
1500.6841238653044 0.9996240552296163
1500.6856245501788 0.9996191831348363
1500.6871252365534 0.9996348117615366
1500.688625924429 0.9996701301464962
1500.6901266138052 0.9997223043213139
1500.691627304682 0.9997826093721197
1500.6931279970597 0.9998291153848903
1500.694628690938 0.9998257139438841
1500.6961293863171 0.9997787031831218
1500.6976300831966 0.9997249126729292
1500.699130781577 0.9996818514056202
1500.7006314814582 0.9996561577758355
1500.70213218284 0.999650027466923
1500.7036328857225 0.9996638573763443
1500.7051335901056 0.9996967051274579
1500.7066342959895 0.9997452127737582
1500.708135003374 0.9998007953487592
1500.7096357122593 0.9998495398902204
1500.7111364226455 0.9998789488164445
1500.7126371345323 0.9998911863998943
1500.7141378479196 0.9998975745840717
1500.715638562808 0.9999031573704393
1500.7171392791968 0.9999078889965515
1500.7186399970865 0.9999106490604084
1500.7201407164766 0.999910769812534
1500.721641437368 0.9999069922673794
1500.7231421597596 0.999894508395667
1500.724642883652 0.9998655750172533
1500.7261436090453 0.9998217370002334
1500.7276443359392 0.999775531696671
1500.7291450643338 0.9997387443050789
1500.7306457942293 0.9997177337522615
1500.7321465256252 0.9997129527680206
1500.733647258522 0.9997160258197446
1500.7351479929196 0.9997080976786125
1500.736648728818 0.9996886567284605
1500.738149466217 0.9996773088922519
1500.7396502051167 0.9996837462187901
1500.7411509455171 0.9997098442006888
1500.7426516874186 0.9997545210426125
1500.7441524308203 0.9998112275808532
1500.7456531757232 0.999861141731778
1500.7471539221267 0.9998871359078692
1500.7486546700309 0.9998941239254532
1500.7501554194362 0.9998917408888481
1500.7516561703417 0.9998799926984794
1500.7531569227483 0.9998507281075416
1500.7546576766554 0.9998021712063899
1500.7561584320636 0.9997464215315253
1500.7576591889724 0.9996978896406049
1500.759159947382 0.9996652190351253
1500.7606607072921 0.9996516393377196
1500.7621614687032 0.9996579177778323
1500.763662231615 0.9996823010752173
1500.7651629960276 0.999710091238905
1500.7666637619411 0.9996990717327832
1500.768164529355 0.9996607378468372
1500.7696652982697 0.9996320811489237
1500.7711660686855 0.9996222266922021
1500.772666840602 0.9996324353231242
1500.774167614019 0.9996621168174328
1500.775668388937 0.9997086846245454
1500.7771691653559 0.9997651963452854
1500.7786699432752 0.9998192219943124
1500.7801707226954 0.9998586890755398
1500.7816715036165 0.9998798224587551
1500.7831722860383 0.9998903364476538
1500.7846730699607 0.9998968256520002
1500.7861738553843 0.9999006823355407
1500.7876746423085 0.9999006872250111
1500.7891754307334 0.9998959483840205
1500.7906762206592 0.9998887282429882
1500.7921770120859 0.9998834933147452
1500.7936778050132 0.999883519146284
