Atmospheric Species: CO
Metallicity: 1000
C/O_Ratio: 1.0
Wavelength[nm] Flux_variation
1799.9989592438712 0.9999999920294903
1800.0007592437303 0.9999999857614836
1800.0025592453896 0.9999999750442411
1800.004359248849 0.999999959820795
1800.0061592541078 0.9999999437603637
1800.0079592611673 0.9999999337649839
1800.0097592700265 0.9999999352316149
1800.0115592806853 0.9999999472855629
1800.0133592931445 0.9999999635969655
1800.015159307404 0.999999977761083
1800.0169593234634 0.9999999871562295
1800.0187593413225 0.9999999924456705
1800.0205593609817 0.9999999952712744
1800.022359382441 0.999999996857915
1800.0241594057002 0.999999997835083
1800.0259594307595 0.9999999984833331
1800.0277594576187 0.9999999989325545
1800.0295594862782 0.9999999992515265
1800.0313595167377 0.9999999994812159
1800.0331595489968 0.9999999996479081
1800.034959583057 0.9999999997690682
1800.0367596189162 0.9999999998566451
1800.0385596565757 0.9999999999185587
1800.0403596960355 0.999999999960213
1800.0421597372952 0.9999999999856142
1800.043959780355 0.9999999999980003
1800.0457598252146 1.0
1800.0475598718742 0.9999999999936137
1800.0493599203348 0.9999999999802736
1800.0511599705944 0.9999999999610307
1800.0529600226544 0.9999999999367288
1800.0547600765144 0.9999999999080794
1800.0565601321746 0.999999999875665
1800.0583601896344 0.9999999998399303
1800.060160248895 0.9999999998011871
1800.061960309955 0.9999999997596182
1800.0637603728153 0.9999999997152573
1800.0655604374756 0.9999999996679132
1800.067360503936 0.9999999996168968
1800.0691605721963 0.9999999995602901
1800.070960642257 0.9999999994937447
1800.0727607141173 0.999999999410362
1800.074560787778 0.999999999305465
1800.0763608632387 0.9999999991870324
1800.0781609404996 0.9999999990811355
1800.0799610195606 0.999999999017428
1800.0817611004218 0.9999999990031743
1800.0835611830826 0.9999999990162243
1800.085361267544 0.9999999990260497
1800.0871613538052 0.9999999990163543
1800.088961441866 0.9999999989875346
1800.0907615317276 0.9999999989464581
1800.0925616233892 0.9999999988988267
1800.094361716851 0.9999999988476391
1800.0961618121128 0.9999999987942161
1800.0979619091743 0.9999999987391378
1800.0997620080361 0.9999999986826635
1800.1015621086983 0.9999999986248631
1800.1033622111604 0.9999999985656257
1800.1051623154226 0.9999999985045828
1800.1069624214847 0.9999999984410809
1800.1087625293474 0.9999999983744644
1800.11056263901 0.9999999983048097
1800.1123627504724 0.9999999982334596
1800.1141628637351 0.9999999981621233
1800.115962978798 0.9999999980907094
1800.117763095661 0.9999999980159667
1800.1195632143244 0.9999999979317793
1800.121363334787 0.9999999978284058
1800.1231634570509 0.999999997687559
1800.1249635811143 0.9999999974770011
1800.1267637069775 0.9999999971613633
1800.1285638346415 0.999999996745565
1800.1303639641053 0.9999999963254915
1800.1321640953695 0.9999999960656317
1800.1339642284333 0.999999996077208
1800.1357643632975 0.999999996314928
1800.137564499962 0.9999999966202721
1800.1393646384263 0.9999999968557158
1800.1411647786908 0.99999999697836
1800.1429649207557 0.9999999970120422
1800.1447650646205 0.9999999969932912
1800.1465652102856 0.9999999969455545
1800.148365357751 0.999999996878971
1800.1501655070163 0.9999999967962802
1800.1519656580817 0.999999996696388
1800.1537658109473 0.9999999965750789
1800.1555659656133 0.999999996424004
1800.1573661220793 0.999999996227023
1800.1591662803455 0.999999995949597
1800.160966440412 0.9999999955121293
1800.1627666022782 0.9999999947460366
1800.164566765945 0.9999999933861116
1800.1663669314116 0.9999999912360927
1800.1681670986784 0.9999999885498756
1800.1699672677457 0.999999986269818
1800.1717674386132 0.999999985550385
1800.1735676112805 0.9999999867851972
1800.1753677857482 0.9999999892267004
1800.177167962016 0.9999999916900196
1800.1789681400837 0.9999999934559289
1800.180768319952 0.9999999944697877
1800.1825685016202 0.9999999949860212
1800.1843686850887 0.999999995243832
1800.1861688703573 0.9999999953770881
1800.187969057426 0.9999999954461111
1800.1897692462953 0.9999999954777165
1800.1915694369645 0.9999999954854001
1800.1933696294338 0.9999999954769154
1800.1951698237037 0.9999999954570913
1800.1969700197737 0.9999999954290512
1800.1987702176436 0.9999999953949279
1800.200570417314 0.9999999953561899
1800.2023706187845 0.9999999953138821
1800.204170822055 0.9999999952687618
1800.2059710271258 0.9999999952213896
1800.207771233997 0.9999999951721865
1800.2095714426682 0.9999999951214734
1800.2113716531396 0.9999999950694974
1800.2131718654114 0.9999999950164508
1800.2149720794832 0.9999999949624842
1800.2167722953552 0.9999999949077156
1800.2185725130275 0.9999999948522391
1800.2203727324998 0.9999999947961272
1800.222172953773 0.9999999947394345
1800.223973176846 0.9999999946822083
1800.2257734017192 0.9999999946244784
1800.2275736283925 0.9999999945662662
1800.2293738568665 0.9999999945075843
1800.2311740871405 0.9999999944484365
1800.2329743192142 0.9999999943888185
1800.2347745530888 0.9999999943287182
1800.236574788763 0.9999999942681143
1800.2383750262381 0.9999999942069765
1800.2401752655132 0.9999999941452643
1800.2419755065885 0.9999999940829266
1800.2437757494642 0.9999999940198944
1800.2455759941402 0.9999999939560864
1800.247376240616 0.9999999938914002
1800.249176488892 0.999999993825708
1800.2509767389686 0.9999999937588516
1800.2527769908456 0.9999999936906333
1800.2545772445226 0.9999999936208049
1800.2563775 0.9999999935490528
1800.2581777572773 0.999999993474976
1800.259978016355 0.9999999933980575
1800.2617782772334 0.9999999933176217
1800.2635785399118 0.9999999932327743
1800.2653788043906 0.9999999931423108
1800.267179070669 0.9999999930445855
1800.2689793387483 0.9999999929372994
1800.2707796086277 0.9999999928171682
1800.2725798803074 0.9999999926794301
1800.2743801537872 0.9999999925168814
1800.2761804290674 0.9999999923181108
1800.277980706148 0.9999999920630579
1800.2797809850285 0.9999999917105775
1800.2815812657095 0.9999999911680826
1800.283381548191 0.9999999902440192
1800.285181832473 0.9999999886444936
1800.2869821185548 0.9999999861580546
1800.2887824064367 0.9999999830634515
1800.2905826961191 0.9999999803855508
1800.2923829876015 0.9999999794109469
1800.2941832808851 0.9999999806578047
1800.2959835759682 0.9999999833962774
1800.297783872852 0.9999999863140844
1800.299584171536 0.9999999885137253
1800.3013844720203 0.9999999898392594
1800.3031847743046 0.9999999905444318
1800.3049850783898 0.9999999909141334
1800.3067853842754 0.999999991123104
1800.3085856919608 0.9999999912526569
1800.3103860014467 0.9999999913352716
1800.3121863127326 0.9999999913837674
1800.3139866258189 0.9999999914052545
1800.3157869407053 0.9999999914052934
1800.3175872573925 0.9999999913873395
1800.3193875758795 0.9999999913514439
1800.3211878961672 0.9999999912953349
1800.322988218255 0.9999999912200962
1800.324788542143 0.9999999911378588
1800.326588867832 0.9999999910708082
1800.328389195321 0.999999991035607
1800.3301895246102 0.9999999910281938
1800.3319898557002 0.9999999910284113
1800.3337901885902 0.9999999910183484
1800.3355905232806 0.9999999909927216
1800.3373908597714 0.9999999909550765
1800.3391911980623 0.9999999909104752
1800.3409915381535 0.9999999908621882
1800.342791880045 0.9999999908117967
1800.344592223737 0.9999999907600271
1800.3463925692295 0.9999999907072571
1800.3481929165218 0.9999999906537169
1800.3499932656148 0.9999999905995617
1800.3517936165083 0.9999999905449019
1800.353593969202 0.9999999904898201
1800.355394323696 0.9999999904343797
1800.3571946799907 0.9999999903786307
1800.3589950380854 0.9999999903226134
1800.3607953979806 0.9999999902663605
1800.362595759676 0.999999990209902
1800.364396123172 0.999999990153256
1800.3661964884682 0.9999999900964447
1800.3679968555648 0.999999990039485
1800.3697972244618 0.9999999899823915
1800.371597595159 0.9999999899251764
1800.3733979676567 0.999999989867851
1800.375198341955 0.9999999898104248
1800.3769987180535 0.9999999897529064
1800.3787990959522 0.9999999896953033
1800.3805994756517 0.9999999896376222
1800.3823998571509 0.9999999895798689
1800.3842002404513 0.9999999895220487
1800.3860006255513 0.9999999894641664
1800.387801012452 0.999999989406226
1800.3896014011536 0.9999999893482314
1800.391401791655 0.9999999892901857
1800.3932021839566 0.9999999892320922
1800.395002578059 0.9999999891739532
1800.3968029739617 0.9999999891157709
1800.3986033716649 0.9999999890575476
1800.4004037711682 0.9999999889992847
1800.4022041724722 0.9999999889409835
1800.4040045755767 0.9999999888826453
1800.4058049804812 0.9999999888242707
1800.4076053871865 0.99999998876586
1800.4094057956918 0.9999999887074135
1800.4112062059978 0.9999999886489302
1800.4130066181044 0.9999999885904095
1800.4148070320111 0.9999999885318495
1800.4166074477182 0.9999999884732474
1800.4184078652256 0.9999999884145995
1800.4202082845338 0.9999999883559003
1800.4220087056424 0.9999999882971421
1800.423809128551 0.9999999882383139
1800.42560955326 0.9999999881794
1800.4274099797701 0.9999999881203776
1800.4292104080803 0.9999999880612123
1800.4310108381903 0.9999999880018515
1800.4328112701016 0.9999999879422076
1800.4346117038128 0.9999999878821239
1800.436412139325 0.9999999878212945
1800.4382125766372 0.9999999877590956
1800.4400130157503 0.9999999876942854
1800.4418134566633 0.9999999876247047
1800.4436138993767 0.9999999875477439
1800.445414343891 0.999999987462869
1800.4472147902052 0.9999999873755913
1800.4490152383203 0.9999999872978192
1800.4508156882355 0.9999999872401494
1800.4526161399515 0.9999999872022497
1800.4544165934676 0.9999999871729661
1800.4562170487843 0.9999999871401839
1800.4580175059016 0.999999987098682
1800.4598179648192 0.9999999870495614
1800.4616184255372 0.9999999869958677
1800.463418888056 0.9999999869398767
1800.4652193523748 0.9999999868827417
1800.4670198184942 0.9999999868249643
1800.468820286414 0.9999999867667659
1800.4706207561348 0.9999999867082505
1800.4724212276558 0.9999999866494594
1800.474221700977 0.9999999865903806
1800.476022176099 0.9999999865309228
1800.4778226530211 0.9999999864708295
1800.4796231317441 0.999999986409539
1800.4814236122677 0.9999999863461984
1800.483224094591 0.9999999862802749
1800.4850245787152 0.9999999862128067
1800.4868250646402 0.9999999861469988
1800.4886255523654 0.9999999860864575
1800.4904260418912 0.9999999860321089
1800.4922265332175 0.9999999859813099
1800.4940270263437 0.9999999859302955
1800.4958275212716 0.9999999858769396
1800.497628017999 0.9999999858211881
1800.4994285165271 0.9999999857638762
1800.5012290168559 0.9999999857057447
1800.5030295189854 0.9999999856471972
1800.5048300229146 0.9999999855883784
1800.5066305286448 0.9999999855293457
1800.5084310361756 0.9999999854701914
1800.510231545507 0.9999999854109384
1800.5120320566386 0.9999999853516061
1800.5138325695712 0.9999999852922167
1800.5156330843038 0.9999999852327853
1800.517433600837 0.9999999851733061
1800.519234119171 0.9999999851137483
1800.521034639305 0.9999999850540666
1800.52283516124 0.9999999849942309
1800.5246356849752 0.9999999849342717
1800.5264362105113 0.9999999848743025
1800.5282367378475 0.9999999848144621
1800.530037266984 0.9999999847547982
1800.5318377979218 0.9999999846952218
1800.5336383306599 0.9999999846355874
1800.5354388651986 0.9999999845758015
1800.5372394015374 0.9999999845158498
1800.539039939677 0.9999999844557554
1800.5408404796171 0.9999999843955399
1800.5426410213581 0.999999984335211
1800.544441564899 0.9999999842747663
1800.5462421102409 0.9999999842141974
1800.5480426573831 0.999999984153492
1800.549843206326 0.9999999840926348
1800.5516437570698 0.9999999840316063
1800.5534443096133 0.999999983970383
1800.555244863958 0.999999983908934
1800.5570454201031 0.9999999838472245
1800.5588459780488 0.9999999837852062
1800.5606465377953 0.9999999837228176
1800.5624470993416 0.9999999836599772
1800.564247662689 0.9999999835965747
1800.5660482278365 0.9999999835324558
1800.567848794785 0.9999999834673975
1800.569649363534 0.99999998340107
1800.5714499340836 0.9999999833329537
1800.5732505064339 0.9999999832621704
1800.5750510805847 0.999999983187018
1800.5768516565358 0.9999999831036605
1800.5786522342883 0.9999999830033048
1800.5804528138403 0.999999982869519
1800.582253395194 0.9999999826840688
1800.5840539783474 0.9999999824507609
1800.5858545633016 0.9999999822221364
1800.5876551500564 0.9999999820821412
1800.5894557386118 0.9999999820757255
1800.591256328968 0.9999999821628446
1800.5930569211246 0.9999999822591503
1800.594857515082 0.9999999823078961
1800.59665811084 0.999999982301731
1800.598458708398 0.9999999822573629
1800.6002593077574 0.9999999821904368
1800.6020599089168 0.9999999821084457
1800.603860511877 0.9999999820128691
1800.6056611166377 0.9999999819016316
1800.607461723199 0.9999999817694195
1800.609262331561 0.9999999816062147
1800.6110629417235 0.9999999813932664
1800.6128635536868 0.9999999810934904
1800.6146641674504 0.9999999806286118
1800.6164647830149 0.9999999798400138
1800.6182654003796 0.9999999784798306
1800.6200660195454 0.9999999763645276
1800.6218666405118 0.9999999737408363
1800.6236672632788 0.9999999715217125
1800.6254678878463 0.9999999708292694
1800.6272685142142 0.9999999720479295
1800.629069142383 0.9999999744484855
1800.630869772352 0.9999999768707649
1800.6326704041226 0.9999999786074153
1800.6344710376932 0.9999999796029123
1800.6362716730644 0.9999999801069239
1800.6380723102366 0.9999999803551954
1800.6398729492091 0.9999999804799348
1800.6416735899818 0.9999999805407561
1800.6434742325562 0.9999999805641409
1800.6452748769307 0.9999999805633759
1800.6470755231057 0.9999999805460892
1800.6488761710814 0.9999999805169842
1800.6506768208578 0.999999980479077
1800.652477472435 0.9999999804343943
1800.6542781258127 0.9999999803842926
1800.656078780991 0.999999980329696
1800.65787943797 0.999999980271226
1800.6596800967498 0.9999999802092895
1800.66148075733 0.999999980144129
1800.6632814197112 0.9999999800758588
1800.6650820838927 0.999999980004482
1800.6668827498752 0.9999999799299026
1800.6686834176583 0.9999999798519266
1800.6704840872417 0.9999999797702575
1800.6722847586261 0.9999999796844854
1800.6740854318116 0.9999999795940692
1800.675886106797 0.9999999794983054
1800.6776867835833 0.9999999793962919
1800.6794874621703 0.9999999792868698
1800.6812881425583 0.9999999791685458
1800.6830888247466 0.9999999790393803
1800.6848895087362 0.9999999788968265
1800.6866901945255 0.9999999787374942
1800.688490882116 0.9999999785567976
1800.6902915715073 0.9999999783484013
1800.6920922626994 0.9999999781033809
1800.6938929556916 0.9999999778087605
1800.6956936504848 0.9999999774457407
1800.6974943470789 0.9999999769856354
1800.6992950454735 0.9999999763828634
1800.7010957456691 0.9999999755579629
1800.702896447665 0.9999999743526795
1800.7046971514615 0.9999999724141363
1800.7064978570588 0.9999999689694434
1800.7082985644572 0.999999962643284
1800.710099273656 0.9999999519332826
1800.7118999846555 0.9999999369778702
1800.7137006974554 0.9999999216148358
1800.7155014120567 0.9999999126056185
1800.7173021284584 0.9999999148549868
1800.719102846661 0.9999999270396988
1800.7209035666635 0.9999999428416597
1800.7227042884679 0.9999999562486167
1800.7245050120723 0.9999999650070064
1800.7263057374778 0.9999999698981977
1800.7281064646834 0.9999999725100651
1800.7299071936905 0.9999999739835922
1800.7317079244979 0.9999999748952951
1800.7335086571063 0.9999999755013371
1800.7353093915149 0.999999975921216
1800.7371101277247 0.9999999762187604
1800.738910865735 0.9999999764320773
1800.7407116055463 0.9999999765849624
1800.7425123471583 0.9999999766929829
1800.7443130905708 0.9999999767657162
1800.7461138357844 0.9999999768084975
1800.7479145827986 0.9999999768248969
1800.7497153316133 0.9999999768210492
1800.7515160822288 0.9999999768086009
1800.7533168346454 0.9999999768002523
1800.7551175888625 0.9999999768002777
1800.7569183448804 0.9999999768019147
1800.758719102699 0.9999999767954685
1800.7605198623187 0.9999999767764383
1800.7623206237388 0.9999999767457698
1800.7641213869597 0.9999999767059473
1800.7659221519814 0.9999999766584244
1800.7677229188037 0.9999999766030174
1800.769523687427 0.9999999765374241
1800.7713244578508 0.9999999764553515
1800.7731252300757 0.9999999763433742
1800.7749260041012 0.9999999761811612
1800.7767267799275 0.9999999759548123
1800.7785275575545 0.999999975684321
1800.7803283369824 0.9999999754385285
1800.7821291182113 0.999999975300727
1800.7839299012405 0.99999997530299
1800.7857306860708 0.9999999754009344
1800.7875314727019 0.9999999755175372
1800.7893322611335 0.9999999755980259
1800.7911330513662 0.9999999756229668
1800.7929338433994 0.9999999755936412
1800.7947346372334 0.9999999755219788
1800.7965354328685 0.9999999754244079
1800.7983362303044 0.999999975309463
1800.8001370295412 0.9999999751652547
1800.8019378305783 0.9999999749529659
1800.8037386334167 0.9999999745948015
1800.8055394380553 0.9999999739614294
1800.807340244495 0.9999999729266479
1800.8091410527359 0.9999999715479642
1800.8109418627773 0.9999999702401561
1800.8127426746196 0.9999999696242321
1800.8145434882624 0.9999999700359672
1800.8163443037058 0.9999999712077265
1800.8181451209505 0.9999999725255817
1800.8199459399964 0.9999999735316553
1800.8217467608426 0.9999999741276158
1800.82354758349 0.9999999744275455
1800.8253484079382 0.9999999745666883
1800.8271492341864 0.9999999746275053
1800.8289500622361 0.9999999746483762
1800.8307508920861 0.9999999746462133
1800.8325517237377 0.9999999746293317
1800.8343525571897 0.9999999746024592
1800.8361533924426 0.9999999745685438
1800.8379542294967 0.9999999745295015
1800.8397550683515 0.9999999744866424
1800.8415559090063 0.999999974440872
1800.843356751463 0.9999999743928351
1800.84515759572 0.9999999743429998
1800.8469584417778 0.9999999742917118
1800.8487592896365 0.9999999742392268
1800.8505601392958 0.9999999741857328
1800.8523609907566 0.9999999741313634
1800.8541618440174 0.999999974076223
1800.85596269908 0.9999999740204255
1800.857763555943 0.9999999739641211
1800.8595644146067 0.9999999739074631
1800.8613652750714 0.9999999738505319
1800.863166137337 0.999999973793305
1800.8649670014036 0.9999999737357181
1800.8667678672707 0.99999997367774
1800.868568734939 0.9999999736193865
1800.8703696044079 0.9999999735606925
1800.8721704756779 0.9999999735016856
1800.8739713487485 0.9999999734423815
1800.87577222362 0.9999999733827863
1800.877573100293 0.9999999733229006
1800.8793739787664 0.9999999732627197
1800.8811748590406 0.9999999732022353
1800.882975741116 0.9999999731414356
1800.8847766249924 0.9999999730803014
1800.8865775106694 0.9999999730188109
1800.8883783981469 0.9999999729569348
1800.890179287426 0.999999972894635
1800.8919801785055 0.9999999728318637
1800.893781071386 0.9999999727685581
1800.8955819660673 0.9999999727046359
1800.89738286255 0.9999999726399857
1800.899183760833 0.9999999725744543
1800.9009846609176 0.9999999725078224
1800.9027855628024 0.9999999724397541
1800.9045864664881 0.9999999723697452
1800.906387371975 0.9999999722968782
1800.9081882792627 0.9999999722192779
1800.9099891883516 0.9999999721326065
1800.9117900992412 0.9999999720274989
1800.9135910119317 0.9999999718891563
1800.915391926423 0.9999999717076294
1800.9171928427154 0.9999999715008284
1800.9189937608087 0.9999999713253735
1800.9207946807028 0.9999999712412732
1800.922595602398 0.9999999712549594
1800.924396525894 0.9999999713123057
1800.9261974511908 0.9999999713513591
1800.9279983782883 0.9999999713460866
1800.9297993071875 0.9999999713025197
1800.931600237887 0.9999999712351286
1800.9334011703877 0.9999999711536645
1800.9352021046896 0.9999999710622423
1800.9370030407918 0.9999999709618582
1800.938803978695 0.9999999708520461
1800.9406049183995 0.9999999707314585
1800.9424058599047 0.9999999705979503
1800.944206803211 0.9999999704484317
1800.9460077483184 0.9999999702785524
1800.9478086952265 0.9999999700885699
1800.9496096439352 0.9999999698702534
