Atmospheric Species: CO
Metallicity: 1000
C/O_Ratio: 0.5
Wavelength[nm] Flux_variation
2399.998438414741 1.0
2400.0008384143794 0.9999999925380599
2400.0032384164174 0.9999999850017358
2400.005638420856 0.9999999773900068
2400.008038427694 0.9999999697021349
2400.0104384369324 0.9999999619363561
2400.0128384485706 0.9999999540916887
2400.015238462609 0.9999999461666164
2400.0176384790475 0.9999999381603787
2400.0200384978857 0.9999999300707673
2400.022438519124 0.9999999218970702
2400.0248385427626 0.9999999136377135
2400.0272385688013 0.9999999052909362
2400.0296385972397 0.9999998968551913
2400.032038628078 0.9999998883290351
2400.0344386613165 0.9999998797105335
2400.0368386969553 0.999999870997934
2400.039238734994 0.9999998621897317
2400.041638775433 0.9999998532834968
2400.044038818271 0.9999998442774366
2400.04643886351 0.9999998351695437
2400.048838911149 0.9999998259574268
2400.0512389611877 0.9999998166388856
2400.0536390136267 0.9999998072116719
2400.0560390684655 0.9999997976728885
2400.0584391257044 0.9999997880204511
2400.060839185344 0.9999997782509699
2400.0632392473826 0.9999997683617758
2400.065639311822 0.9999997583498267
2400.068039378661 0.9999997482121485
2400.0704394479008 0.9999997379447741
2400.0728395195397 0.9999997275447559
2400.075239593579 0.999999717007549
2400.077639670019 0.9999997063296933
2400.080039748859 0.9999996955063776
2400.0824398300983 0.9999996845335503
2400.084839913738 0.9999996734061224
2400.087239999778 0.9999996621188826
2400.089640088218 0.9999996506662211
2400.0920401790577 0.9999996390425384
2400.094440272298 0.999999627240876
2400.0968403679385 0.9999996152550029
2400.0992404659787 0.9999996030772768
2400.101640566419 0.9999995906998826
2400.1040406692596 0.9999995781139236
2400.1064407745002 0.999999565310137
2400.108840882141 0.9999995522786945
2400.1112409921816 0.9999995390081723
2400.1136411046227 0.9999995254865761
2400.1160412194636 0.9999995117006176
2400.118441336705 0.9999994976356162
2400.120841456346 0.9999994832753668
2400.123241578388 0.9999994686021547
2400.1256417028294 0.9999994535961402
2400.128041829671 0.999999438235111
2400.130441958913 0.9999994224940482
2400.1328420905547 0.999999406345054
2400.135242224597 0.9999993897571341
2400.1376423610386 0.9999993726945032
2400.140042499881 0.9999993551159978
2400.1424426411236 0.9999993369750219
2400.1448427847663 0.9999993182155831
2400.1472429308087 0.9999992987813767
2400.1496430792517 0.9999992785979067
2400.152043230095 0.9999992575802956
2400.154443383338 0.9999992356291353
2400.1568435389813 0.9999992126277158
2400.159243697025 0.999999188434993
2400.1616438574683 0.999999162882012
2400.1640440203123 0.9999991357634549
2400.1664441855564 0.9999991068280958
2400.1688443532003 0.9999990757654682
2400.1712445232447 0.9999990421879198
2400.173644695689 0.9999990056055813
2400.1760448705336 0.9999989653938252
2400.1784450477785 0.9999989207416986
2400.1808452274236 0.9999988705843481
2400.1832454094692 0.9999988134978566
2400.1856455939146 0.9999987475459132
2400.18804578076 0.9999986700352793
2400.190445970006 0.9999985771272353
2400.1928461616517 0.9999984631619864
2400.1952463556977 0.9999983195475396
2400.1976465521443 0.9999981321852803
2400.200046750991 0.9999978737285954
2400.202446952238 0.9999974645588073
2400.204847155885 0.9999966106777678
2400.2072473619323 0.9999946687070905
2400.2096475703793 0.999991113825362
2400.212047781227 0.9999861602154424
2400.2144479944745 0.9999819641912489
2400.2168482101224 0.9999813280610406
2400.219248428171 0.9999847048594449
2400.221648648619 0.9999897528998553
2400.224048871468 0.9999937983430508
2400.226449096717 0.9999961500211462
2400.228849324366 0.9999971964475143
2400.2312495544156 0.9999976314261388
2400.233649786865 0.9999978621386231
2400.2360500217146 0.9999980056110634
2400.238450258965 0.9999980976948816
2400.240850498615 0.9999981553371691
2400.2432507406656 0.9999981884409325
2400.2456509851163 0.9999982031790184
2400.2480512319676 0.9999982035152759
2400.2504514812185 0.9999981919620121
2400.2528517328706 0.9999981700420246
2400.2552519869223 0.9999981385431211
2400.257652243374 0.9999980976502751
2400.2600525022262 0.9999980469955936
2400.262452763479 0.9999979856341414
2400.2648530271317 0.9999979119468907
2400.2672532931847 0.9999978234470077
2400.2696535616383 0.9999977164456463
2400.272053832492 0.9999975854778825
2400.2744541057455 0.9999974223634113
2400.2768543813995 0.9999972142653616
2400.279254659454 0.9999969388124961
2400.281654939909 0.9999965416775589
2400.284055222764 0.9999958150628688
2400.2864555080196 0.999994075087971
2400.288855795675 0.9999901850928484
2400.2912560857308 0.999983745584309
2400.293656378187 0.9999775101591395
2400.2960566730435 0.9999755791995755
2400.2984569703003 0.999979169730801
2400.3008572699573 0.999985963030544
2400.3032575720144 0.9999917032476039
2400.3056578764727 0.9999947701026425
2400.30805818333 0.9999960205579592
2400.3104584925886 0.999996529431974
2400.3128588042473 0.9999968011683352
2400.315259118306 0.9999969682252445
2400.317659434765 0.9999970628145329
2400.3200597536247 0.9999970720318384
2400.3224600748845 0.999996938094932
2400.324860398545 0.9999966431554288
2400.3272607246054 0.9999963461838457
2400.329661053066 0.9999962704233395
2400.332061383927 0.9999964689138445
2400.3344617171883 0.9999967754209717
2400.3368620528504 0.9999969761147031
2400.3392623909126 0.9999970284824256
2400.341662731375 0.9999970049108888
2400.344063074238 0.9999969563674163
2400.346463419501 0.9999968986165721
2400.3488637671644 0.9999968349240546
2400.3512641172283 0.9999967660411967
2400.3536644696924 0.9999966921857432
2400.356064824557 0.9999966133895365
2400.358465181822 0.9999965295647352
2400.3608655414873 0.9999964405286735
2400.363265903553 0.999996346018659
2400.365666268019 0.9999962456866722
2400.3680666348855 0.9999961390937844
2400.370467004152 0.9999960256927456
2400.372867375819 0.9999959048187138
2400.375267749887 0.9999957756637924
2400.377668126355 0.9999956372562766
2400.380068505223 0.9999954884199267
2400.3824688864916 0.9999953277137955
2400.3848692701604 0.9999951533246598
2400.38726965623 0.9999949629047172
2400.3896700446994 0.9999947533309479
2400.3920704355696 0.9999945203146154
2400.394470828841 0.999994257914579
2400.3968712245114 0.9999939566357506
2400.3992716225825 0.9999935975323395
2400.4016720230543 0.9999931280934182
2400.404072425926 0.9999923129960973
2400.4064728311987 0.99999014476976
2400.408873238872 0.9999843204094632
2400.411273648945 0.9999727147538542
2400.4136740614185 0.9999606421004382
2400.416074476293 0.9999544841345805
2400.4184748935677 0.9999537184753414
2400.4208753132425 0.9999580204422647
2400.423275735318 0.999968485729689
2400.425676159794 0.9999812743481753
2400.42807658667 0.9999889045200158
2400.430477015947 0.9999919302072838
2400.432877447624 0.9999929718377096
2400.435277881702 0.9999934783467972
2400.43767831818 0.9999938529880519
2400.440078757058 0.999994166722056
2400.442479198337 0.9999944388520636
2400.444879642016 0.9999946793384721
2400.447280088096 0.9999948946921458
2400.449680536576 0.9999950895785057
2400.4520809874566 0.999995267436762
2400.4544814407377 0.99999543083066
2400.4568818964194 0.9999955817281362
2400.4592823545017 0.9999957216856724
2400.461682814984 0.9999958519719236
2400.4640832778673 0.9999959736397408
2400.4664837431505 0.9999960875720061
2400.4688842108344 0.9999961945117224
2400.471284680919 0.9999962950777929
2400.4736851534035 0.9999963897852728
2400.476085628289 0.9999964790476259
2400.4784861055746 0.9999965631608786
2400.480886585261 0.9999966422026302
2400.4832870673476 0.9999967152448681
2400.485687551835 0.9999967751919123
2400.4880880387227 0.9999967878964948
2400.490488528011 0.999996670558037
2400.4928890196993 0.9999964036645933
2400.495289513789 0.9999962247835389
2400.4976900102783 0.9999963880399432
2400.5000905091683 0.9999967690625547
2400.5024910104594 0.9999970700354761
2400.5048915141506 0.9999972158786372
2400.5072920202424 0.9999972861405065
2400.5096925287344 0.9999973351413576
2400.512093039627 0.9999973781735564
2400.5144935529206 0.9999974181767939
2400.516894068614 0.9999974558052858
2400.519294586708 0.9999974913245167
2400.521695107203 0.9999975248983147
2400.524095630098 0.9999975566447982
2400.526496155394 0.9999975866591223
2400.5288966830904 0.9999976150216627
2400.531297213187 0.999997641803829
2400.5336977456845 0.9999976670683695
2400.5360982805823 0.9999976908734592
2400.5384988178807 0.9999977132710136
2400.5408993575797 0.999997734310299
2400.54329989968 0.9999977540361937
2400.5457004441796 0.9999977724898205
2400.54810099108 0.999997789709723
2400.5505015403814 0.9999978057310145
2400.552902092083 0.9999978205861909
2400.5553026461853 0.9999978343038007
2400.557703202688 0.9999978469108691
2400.560103761591 0.9999978584294197
2400.5625043228956 0.999997868879686
2400.5649048866 0.9999978782775654
2400.5673054527047 0.999997886635515
2400.56970602121 0.9999978939599518
2400.5721065921166 0.9999979002567417
2400.5745071654233 0.9999979055220003
2400.576907741131 0.999997909747509
2400.579308319239 0.9999979129163173
2400.5817088997474 0.9999979150034745
2400.5841094826565 0.9999979159720085
2400.586510067966 0.9999979157720391
2400.5889106556765 0.9999979143355364
2400.5913112457874 0.9999979115739694
2400.5937118382985 0.9999979073703538
2400.5961124332107 0.9999979015707986
2400.5985130305235 0.9999978939735876
2400.6009136302364 0.9999978843121389
2400.6033142323504 0.9999978722303698
2400.605714836865 0.9999978572479319
2400.6081154437798 0.999997838707843
2400.6105160530956 0.9999978156935037
2400.6129166648116 0.9999977869003441
2400.6153172789286 0.9999977504197716
2400.617717895446 0.9999977033619384
2400.620118514364 0.9999976411895616
2400.622519135683 0.999997556231032
2400.6249197594025 0.9999974334270865
2400.627320385522 0.9999972292812956
2400.629721014043 0.9999967653120679
2400.632121644964 0.9999955782598741
2400.634522278286 0.9999935175956028
2400.6369229140087 0.999991053472366
2400.6393235521314 0.999988879375644
2400.641724192655 0.9999881063155182
2400.6441248355795 0.9999892604067708
2400.646525480905 0.9999915797995533
2400.6489261286306 0.9999939998829201
2400.651326778757 0.9999958945127179
2400.6537274312836 0.9999968675933636
2400.6561280862115 0.9999972273033275
2400.6585287435396 0.9999973889890718
2400.6609294032687 0.9999974845337939
2400.6633300653984 0.9999975469534077
2400.665730729929 0.9999975889790855
2400.6681313968597 0.9999976174122968
2400.6705320661913 0.9999976363463134
2400.6729327379235 0.999997648411801
2400.6753334120563 0.9999976553586583
2400.67773408859 0.9999976583912578
2400.680134767524 0.9999976583600767
2400.682535448859 0.9999976558814061
2400.684936132595 0.9999976514090452
2400.6873368187316 0.9999976452822258
2400.6897375072685 0.9999976377602323
2400.6921381982065 0.9999976290406196
2400.694538891545 0.9999976192790097
2400.6969395872843 0.9999976085953736
2400.699340285424 0.9999975970852315
2400.7017409859645 0.9999975848227789
2400.704141688906 0.999997571866962
2400.706542394248 0.999997558262661
2400.708943101991 0.9999975440443027
2400.711343812134 0.9999975292375176
2400.713744524678 0.9999975138574526
2400.716145239623 0.9999974979148566
2400.7185459569682 0.9999974814078104
2400.7209466767144 0.9999974643307035
2400.7233473988613 0.9999974466681274
2400.7257481234087 0.9999974283947993
2400.7281488503572 0.9999974094764313
2400.7305495797063 0.9999973898634833
2400.7329503114565 0.9999973694916713
2400.735351045607 0.9999973482744628
2400.7377517821583 0.9999973260996854
2400.7401525211103 0.9999973028166655
2400.742553262463 0.9999972782260618
2400.7449540062166 0.9999972520573508
2400.747354752371 0.9999972239389733
2400.749755500926 0.9999971933501154
2400.752156251882 0.9999971595422386
2400.754557005238 0.9999971214045276
2400.7569577609956 0.9999970772244849
2400.7593585191535 0.999997024245582
2400.7617592797124 0.9999969576376074
2400.764160042672 0.9999968674492742
2400.7665608080324 0.9999967235815536
2400.7689615757936 0.9999963997757989
2400.7713623459554 0.999995539207762
2400.7737631185178 0.9999939669692214
2400.776163893481 0.999992190653687
2400.7785646708453 0.9999907981003046
2400.7809654506104 0.9999903158237164
2400.783366232776 0.9999909708460017
2400.7857670173426 0.99999245774772
2400.78816780431 0.999994226932204
2400.790568593678 0.9999956577660345
2400.792969385447 0.9999963345911554
2400.795370179617 0.9999965513906655
2400.797770976187 0.9999966286663999
2400.8001717751586 0.9999966626957364
2400.8025725765306 0.9999966765934435
2400.8049733803036 0.9999966786615636
2400.8073741864773 0.9999966730829085
2400.8097749950516 0.9999966622673124
2400.8121758060265 0.9999966477068972
2400.8145766194034 0.9999966303644724
2400.81697743518 0.9999966108851814
2400.819378253358 0.9999965897145487
2400.821779073937 0.9999965671660506
2400.8241798969157 0.9999965434668983
2400.826580722296 0.9999965187826144
2400.828981550077 0.9999964932366779
2400.831382380259 0.9999964669207912
2400.8337832128414 0.9999964399047164
2400.8361840478256 0.9999964122414619
2400.8385848852095 0.999996383969651
2400.8409857249944 0.9999963551204445
2400.843386567181 0.9999963257151874
2400.8457874117676 0.9999962957697475
2400.8481882587557 0.9999962652949095
2400.850589108144 0.9999962342974216
2400.8529899599334 0.9999962027797767
2400.855390814124 0.9999961707418193
2400.857791670715 0.999996138180162
2400.860192529707 0.999996105087913
2400.8625933911 0.9999960714565065
2400.8649942548936 0.9999960372722837
2400.867395121088 0.9999960025197441
2400.8697959896836 0.9999959671766427
2400.87219686068 0.9999959312146356
2400.8745977340773 0.9999958945972993
2400.876998609875 0.9999958572721086
2400.8793994880743 0.9999958191656795
2400.8818003686742 0.9999957801646034
2400.8842012516748 0.9999957400855354
2400.8866021370764 0.9999956985936949
2400.889003024879 0.9999956549333566
2400.8914039150823 0.9999956062189187
2400.8938048076866 0.9999955353272738
2400.8962057026915 0.9999953576681209
2400.8986066000975 0.9999948640587046
2400.9010074999046 0.9999939929538586
2400.9034084021123 0.9999931910965502
2400.9058093067215 0.9999930304573066
2400.908210213731 0.9999936129230833
2400.9106111231413 0.9999944513509678
2400.9130120349528 0.9999949770009281
2400.9154129491653 0.9999951238997437
2400.917813865779 0.9999951176736515
2400.9202147847927 0.9999950776678636
2400.9226157062076 0.9999950307364244
2400.925016630024 0.9999949811177276
2400.927417556241 0.9999949296589197
2400.929818484859 0.9999948766510119
2400.932219415878 0.9999948222148571
2400.934620349298 0.9999947663947399
2400.9370212851186 0.9999947091952129
2400.93942222334 0.9999946505946522
2400.9418231639625 0.9999945905562159
2400.944224106986 0.9999945290297744
2400.9466250524106 0.9999944659568423
2400.949026000236 0.9999944012698995
2400.9514269504625 0.9999943348939905
2400.95382790309 0.9999942667452506
2400.956228858118 0.999994196734432
2400.9586298155473 0.9999941247611779
2400.9610307753774 0.9999940507182176
2400.963431737609 0.9999939744877611
2400.9658327022407 0.9999938959411296
2400.968233669274 0.9999938149366835
2400.9706346387084 0.9999937313199195
2400.9730356105433 0.9999936449199411
2400.975436584779 0.9999935555468453
2400.9778375614164 0.9999934629616498
2400.980238540454 0.9999933669747659
2400.9826395218934 0.9999932673181301
2400.985040505733 0.999993163693138
2400.987441491974 0.999993055737871
2400.989842480616 0.9999929431467773
2400.9922434716586 0.9999928222887371
2400.9946444651027 0.9999926774188608
2400.9970454609474 0.9999925284878178
2400.999446459193 0.9999923747128878
2401.00184745984 0.9999922152451984
2401.004248462888 0.9999920491328786
2401.006649468337 0.9999918753093379
2401.009050476187 0.9999916925364667
2401.0114514864376 0.9999914993663527
2401.0138524990894 0.9999912940790527
2401.0162535141426 0.9999910745868854
2401.0186545315964 0.9999908383044358
2401.0210555514514 0.9999905819512153
2401.0234565737073 0.9999903012815214
2401.025857598364 0.9999899906390309
2401.028258625422 0.9999896416657361
2401.030659654881 0.9999892416655447
2401.0330606867415 0.9999887724442827
2401.0354617210023 0.9999881855467789
2401.0378627576647 0.9999870852837108
2401.0402637967277 0.9999816516595998
2401.042664838192 0.9999621249667658
2401.0450658820573 0.9999457548524067
2401.0474669283235 0.9999371147491262
2401.0498679769908 0.9999321927669234
2401.052269028059 0.9999306625641614
2401.054670081529 0.9999324979623528
2401.0570711373994 0.9999377321000407
2401.059472195671 0.9999467864566128
2401.0618732563435 0.9999642086443893
2401.064274319417 0.9999826239297273
2401.0666753848914 0.9999872484436128
2401.0690764527676 0.9999882472869888
2401.0714775230445 0.999988818541477
2401.0738785957224 0.9999892803844345
2401.076279670802 0.9999896751566635
2401.0786807482814 0.9999900201490062
2401.081081828163 0.999990326462176
2401.083482910445 0.999990601744449
2401.0858839951284 0.99999085160873
2401.088285082213 0.999991080274165
2401.0906861716985 0.9999912909905334
2401.0930872635854 0.9999914863154558
2401.095488357873 0.9999916682948857
2401.097889454562 0.9999918385994744
2401.100290553651 0.9999919986083845
2401.1026916551423 0.9999921494774103
2401.1050927590345 0.9999922921825453
2401.107493865328 0.9999924275502451
2401.1098949740217 0.9999925562886784
2401.112296085117 0.9999926790069762
2401.114697198614 0.9999927962337861
2401.1170983145116 0.9999929084671026
2401.1194994328107 0.9999930160402934
2401.12190055351 0.9999931193518844
2401.1243016766116 0.9999932187291312
2401.1267028021134 0.999993314467535
2401.1291039300168 0.9999934068331671
2401.131505060321 0.9999934960144256
2401.1339061930266 0.999993582248733
2401.1363073281336 0.9999936657246831
2401.138708465641 0.9999937466118486
2401.14110960555 0.9999938250665035
2401.14351074786 0.9999939012289807
2401.1459118925713 0.9999939752285328
2401.1483130396837 0.9999940471841443
2401.150714189197 0.9999941172045678
2401.153115341112 0.9999941853917448
2401.1555164954275 0.9999942518388079
2401.1579176521445 0.9999943166335901
2401.160318811263 0.9999943798565296
2401.1627199727823 0.9999944415831428
2401.1651211367025 0.9999945018835671
2401.1675223030243 0.9999945608236253
2401.169923471747 0.9999946184646334
2401.172324642871 0.9999946748630244
2401.174725816396 0.9999947300726486
2401.1771269923224 0.9999947841427942
2401.17952817065 0.9999948371203432
2401.1819293513786 0.999994889049161
2401.1843305345087 0.9999949399701589
2401.1867317200395 0.9999949592449648
2401.1891329079717 0.9999949790015175
2401.1915340983055 0.9999950012098103
2401.19393529104 0.9999950255023174
2401.196336486176 0.9999950515897029
2401.198737683713 0.9999950792541319
2401.201138883651 0.9999951083433348
2401.2035400859904 0.9999951387779759
2401.205941290731 0.9999951705551897
2401.2083424978728 0.9999952038068504
2401.210743707416 0.9999952388228508
2401.21314491936 0.9999952762011094
2401.215546133705 0.9999953168750417
2401.217947350452 0.9999953569305292
2401.2203485695995 0.999995396387304
2401.2227497911485 0.9999954352624009
2401.225151015099 0.9999954735744724
2401.2275522414507 0.9999955113388811
2401.2299534702033 0.9999955485720747
2401.2323547013575 0.9999955852889842
2401.2347559349128 0.9999956215047313
2401.237157170869 0.9999956572320753
2401.239558409227 0.999995692485233
2401.241959649986 0.9999957272767704
2401.244360893146 0.9999957616185677
2401.2467621387077 0.9999957955226177
2401.2491633866703 0.9999957909824453
2401.251564637034 0.9999957969531702
2401.253965889799 0.9999958133274791
2401.2563671449657 0.9999958345563326
2401.2587684025334 0.9999958584452827
2401.261169662502 0.9999958839212916
2401.263570924872 0.9999959103903086
2401.2659721896434 0.9999959374931644
2401.2683734568163 0.9999959650037552
2401.2707747263903 0.9999959927721738
2401.273175998366 0.9999960206957899
2401.2755772727423 0.999996048702417
