Atmospheric Species: CO
Metallicity: 100
C/O_Ratio: 0.5
Wavelength[nm] Flux_variation
2399.998438414741 1.0
2400.0008384143794 0.9999999910235171
2400.0032384164174 0.9999999819406985
2400.005638420856 0.9999999727497806
2400.008038427694 0.9999999634492858
2400.0104384369324 0.9999999540366222
2400.0128384485706 0.9999999445104605
2400.015238462609 0.9999999348683299
2400.0176384790475 0.9999999251087558
2400.0200384978857 0.999999915228908
2400.022438519124 0.999999905227053
2400.0248385427626 0.9999998951011247
2400.0272385688013 0.9999998848482251
2400.0296385972397 0.9999998744660672
2400.032038628078 0.9999998639526213
2400.0344386613165 0.9999998533047653
2400.0368386969553 0.9999998425200848
2400.039238734994 0.9999998315957659
2400.041638775433 0.9999998205289293
2400.044038818271 0.9999998093162935
2400.04643886351 0.9999997979552366
2400.048838911149 0.9999997864423376
2400.0512389611877 0.9999997747741214
2400.0536390136267 0.9999997629474242
2400.0560390684655 0.9999997509582214
2400.0584391257044 0.9999997388031364
2400.060839185344 0.9999997264779154
2400.0632392473826 0.9999997139784831
2400.065639311822 0.9999997013004558
2400.068039378661 0.999999688439844
2400.0704394479008 0.9999996753912753
2400.0728395195397 0.9999996621502328
2400.075239593579 0.9999996487112008
2400.077639670019 0.9999996350689123
2400.080039748859 0.9999996212173676
2400.0824398300983 0.9999996071506421
2400.084839913738 0.9999995928622626
2400.087239999778 0.9999995783455925
2400.089640088218 0.9999995635930639
2400.0920401790577 0.9999995485973929
2400.094440272298 0.9999995333498913
2400.0968403679385 0.9999995178423323
2400.0992404659787 0.999999502065072
2400.101640566419 0.9999994860085782
2400.1040406692596 0.9999994696615139
2400.1064407745002 0.9999994530127673
2400.108840882141 0.9999994360500029
2400.1112409921816 0.9999994187592441
2400.1136411046227 0.9999994011262455
2400.1160412194636 0.9999993831349445
2400.118441336705 0.9999993647679953
2400.120841456346 0.999999346005985
2400.123241578388 0.9999993268282069
2400.1256417028294 0.999999307211572
2400.128041829671 0.9999992871301683
2400.130441958913 0.9999992665550891
2400.1328420905547 0.9999992454534568
2400.135242224597 0.9999992237912317
2400.1376423610386 0.9999992015269744
2400.140042499881 0.9999991786138995
2400.1424426411236 0.999999154999862
2400.1448427847663 0.999999130620632
2400.1472429308087 0.9999991054125811
2400.1496430792517 0.9999990792922349
2400.152043230095 0.999999052163679
2400.154443383338 0.9999990239158453
2400.1568435389813 0.9999989944153382
2400.159243697025 0.9999989635034398
2400.1616438574683 0.999998930988454
2400.1640440203123 0.9999988966361776
2400.1664441855564 0.9999988601591612
2400.1688443532003 0.9999988211991863
2400.1712445232447 0.9999987793060662
2400.173644695689 0.9999987339048177
2400.1760448705336 0.9999986842539514
2400.1784450477785 0.9999986293780321
2400.1808452274236 0.9999985679743382
2400.1832454094692 0.9999984982670882
2400.1856455939146 0.9999984177833336
2400.18804578076 0.9999983229775059
2400.190445970006 0.9999982086332511
2400.1928461616517 0.9999980666901757
2400.1952463556977 0.9999978841796638
2400.1976465521443 0.9999976380675836
2400.200046750991 0.9999972808748078
2400.202446952238 0.999996694097647
2400.204847155885 0.9999955739634125
2400.2072473619323 0.9999934105114147
2400.2096475703793 0.9999900034142659
2400.212047781227 0.9999858171473807
2400.2144479944745 0.9999822411791456
2400.2168482101224 0.9999816706034698
2400.219248428171 0.9999846011332537
2400.221648648619 0.9999888095351446
2400.224048871468 0.9999924965855203
2400.226449096717 0.9999949743663834
2400.228849324366 0.9999962574643941
2400.2312495544156 0.9999968625872148
2400.233649786865 0.999997176676437
2400.2360500217146 0.9999973572865228
2400.238450258965 0.999997464400896
2400.240850498615 0.9999975253268122
2400.2432507406656 0.9999975547352115
2400.2456509851163 0.9999975612359334
2400.2480512319676 0.999997550116688
2400.2504514812185 0.9999975246162447
2400.2528517328706 0.9999974866424406
2400.2552519869223 0.999997437139892
2400.257652243374 0.9999973762791965
2400.2600525022262 0.9999973035168525
2400.262452763479 0.9999972175466239
2400.2648530271317 0.999997116138612
2400.2672532931847 0.9999969958140492
2400.2696535616383 0.9999968512874395
2400.272053832492 0.9999966744006589
2400.2744541057455 0.9999964523144602
2400.2768543813995 0.9999961634405984
2400.279254659454 0.9999957675567522
2400.281654939909 0.9999951756293453
2400.284055222764 0.9999941569647215
2400.2864555080196 0.9999922031452125
2400.288855795675 0.9999887109093847
2400.2912560857308 0.9999834951132051
2400.293656378187 0.9999778008536248
2400.2960566730435 0.9999757444625845
2400.2984569703003 0.9999794349396753
2400.3008572699573 0.9999852961019083
2400.3032575720144 0.999989955047774
2400.3056578764727 0.9999928189548711
2400.30805818333 0.9999942520542151
2400.3104584925886 0.9999949178162372
2400.3128588042473 0.9999952386656893
2400.315259118306 0.9999953612833361
2400.317659434765 0.9999952766736203
2400.3200597536247 0.9999948796402301
2400.3224600748845 0.999994153869886
2400.324860398545 0.9999933434934238
2400.3272607246054 0.9999927664115448
2400.329661053066 0.9999926312420848
2400.332061383927 0.9999929732581876
2400.3344617171883 0.9999936416855503
2400.3368620528504 0.9999943400416539
2400.3392623909126 0.9999947806995994
2400.341662731375 0.9999949175603283
2400.344063074238 0.9999948868830781
2400.346463419501 0.999994791548291
2400.3488637671644 0.9999946693622653
2400.3512641172283 0.9999945311487959
2400.3536644696924 0.9999943801769249
2400.356064824557 0.9999942175653974
2400.358465181822 0.9999940435905891
2400.3608655414873 0.9999938580689086
2400.363265903553 0.9999936604834154
2400.365666268019 0.9999934500187806
2400.3680666348855 0.9999932255581008
2400.370467004152 0.9999929856436595
2400.372867375819 0.9999927284564798
2400.375267749887 0.9999924517744341
2400.377668126355 0.999992152982499
2400.380068505223 0.9999918290787756
2400.3824688864916 0.9999914766964759
2400.3848692701604 0.9999910920426398
2400.38726965623 0.9999906705875018
2400.3896700446994 0.9999902062843672
2400.3920704355696 0.9999896897330921
2400.394470828841 0.9999891057580119
2400.3968712245114 0.9999884293093437
2400.3992716225825 0.9999876201599965
2400.4016720230543 0.9999866063979909
2400.404072425926 0.9999851797341209
2400.4064728311987 0.9999825420223291
2400.408873238872 0.9999769919376835
2400.411273648945 0.9999648796960849
2400.4136740614185 0.9999413739058243
2400.416074476293 0.9999160133990667
2400.4184748935677 0.9999115281515609
2400.4208753132425 0.9999324800991064
2400.423275735318 0.9999587250873695
2400.425676159794 0.9999741702679265
2400.42807658667 0.9999812411398487
2400.430477015947 0.9999845820970403
2400.432877447624 0.9999862431577238
2400.435277881702 0.9999873367541166
2400.43767831818 0.9999881926296142
2400.440078757058 0.9999889023243494
2400.442479198337 0.9999895101216383
2400.444879642016 0.9999900440598021
2400.447280088096 0.9999905216272545
2400.449680536576 0.9999909537003661
2400.4520809874566 0.9999913471215471
2400.4544814407377 0.9999917068097885
2400.4568818964194 0.9999920367555165
2400.4592823545017 0.9999923404623116
2400.461682814984 0.9999926210756757
2400.4640832778673 0.9999928813723965
2400.4664837431505 0.9999931237509417
2400.4688842108344 0.9999933502352099
2400.471284680919 0.9999935624942888
2400.4736851534035 0.9999937618898181
2400.476085628289 0.9999939495063694
2400.4784861055746 0.9999941261559889
2400.480886585261 0.9999942922682461
2400.4832870673476 0.999994447169896
2400.485687551835 0.999994585891755
2400.4880880387227 0.9999946907087639
2400.490488528011 0.9999947297753511
2400.4928890196993 0.9999947060337747
2400.495289513789 0.9999947206038775
2400.4976900102783 0.9999948788294218
2400.5000905091683 0.9999951337155212
2400.5024910104594 0.9999953621518932
2400.5048915141506 0.999995521075728
2400.5072920202424 0.9999956356574442
2400.5096925287344 0.999995731486421
2400.512093039627 0.9999958188186154
2400.5144935529206 0.9999959006495922
2400.516894068614 0.9999959779422896
2400.519294586708 0.9999960511515879
2400.521695107203 0.9999961205739689
2400.524095630098 0.9999961864355998
2400.526496155394 0.99999624892498
2400.5288966830904 0.9999963082047224
2400.531297213187 0.9999963644204597
2400.5336977456845 0.9999964177022687
2400.5360982805823 0.9999964681692375
2400.5384988178807 0.9999965159281274
2400.5408993575797 0.9999965610794699
2400.54329989968 0.9999966037140603
2400.5457004441796 0.9999966439144262
2400.54810099108 0.9999966817573979
2400.5505015403814 0.9999967173116647
2400.552902092083 0.9999967506400524
2400.5553026461853 0.9999967817975065
2400.557703202688 0.9999968108326731
2400.560103761591 0.9999968377881912
2400.5625043228956 0.9999968626984309
2400.5649048866 0.9999968855895771
2400.5673054527047 0.9999969064796327
2400.56970602121 0.9999969253754525
2400.5721065921166 0.999996942277802
2400.5745071654233 0.999996957170588
2400.576907741131 0.9999969700252203
2400.579308319239 0.9999969807954532
2400.5817088997474 0.9999969894153404
2400.5841094826565 0.9999969957931252
2400.586510067966 0.9999969998077206
2400.5889106556765 0.9999970012970889
2400.5913112457874 0.9999970000529
2400.5937118382985 0.9999969958023744
2400.5961124332107 0.9999969881899434
2400.5985130305235 0.9999969767509499
2400.6009136302364 0.9999969608734262
2400.6033142323504 0.9999969397426415
2400.605714836865 0.9999969122605907
2400.6081154437798 0.9999968769256893
2400.6105160530956 0.9999968316426794
2400.6129166648116 0.999996773414762
2400.6153172789286 0.9999966978643161
2400.617717895446 0.99999659829543
2400.620118514364 0.9999964640087947
2400.622519135683 0.999996276152535
2400.6249197594025 0.9999959954955455
2400.627320385522 0.9999955223255603
2400.629721014043 0.9999946105867457
2400.632121644964 0.999992905186598
2400.634522278286 0.9999903321216999
2400.6369229140087 0.9999874503614873
2400.6393235521314 0.999985144414957
2400.641724192655 0.999984375672015
2400.6441248355795 0.9999855317402939
2400.646525480905 0.9999880418773703
2400.6489261286306 0.9999909207530925
2400.651326778757 0.999993323124139
2400.6537274312836 0.9999948179554052
2400.6561280862115 0.9999955854421232
2400.6585287435396 0.9999959830683364
2400.6609294032687 0.9999962190354675
2400.6633300653984 0.9999963740694955
2400.665730729929 0.9999964810697222
2400.6681313968597 0.9999965565653881
2400.6705320661913 0.999996610174836
2400.6729327379235 0.9999966479952656
2400.6753334120563 0.9999966740508337
2400.67773408859 0.9999966911123492
2400.680134767524 0.9999967011285363
2400.682535448859 0.9999967055067268
2400.684936132595 0.9999967052811345
2400.6873368187316 0.9999967012225794
2400.6897375072685 0.9999966939162372
2400.6921381982065 0.9999966838062097
2400.694538891545 0.999996671237225
2400.6969395872843 0.9999966564696686
2400.699340285424 0.9999966397124593
2400.7017409859645 0.9999966211174499
2400.704141688906 0.9999966008003944
2400.706542394248 0.9999965788432111
2400.708943101991 0.999996555298734
2400.711343812134 0.9999965301967989
2400.713744524678 0.9999965035386862
2400.716145239623 0.9999964753071877
2400.7185459569682 0.9999964454536107
2400.7209466767144 0.9999964139080397
2400.7233473988613 0.9999963805686771
2400.7257481234087 0.9999963452987236
2400.7281488503572 0.9999963079222887
2400.7305495797063 0.9999962682072524
2400.7329503114565 0.9999962258610056
2400.735351045607 0.9999961805048857
2400.7377517821583 0.9999961316541924
2400.7401525211103 0.9999960786759323
2400.742553262463 0.9999960207417242
2400.7449540062166 0.9999959567483022
2400.747354752371 0.9999958852032896
2400.749755500926 0.9999958040492612
2400.752156251882 0.9999957103640802
2400.754557005238 0.9999955999360728
2400.7569577609956 0.9999954663465409
2400.7593585191535 0.9999952993540911
2400.7617592797124 0.9999950807947081
2400.764160042672 0.9999947727439088
2400.7665608080324 0.9999942841943875
2400.7689615757936 0.999993426470848
2400.7713623459554 0.9999919725008184
2400.7737631185178 0.9999899771296377
2400.776163893481 0.9999878168327299
2400.7785646708453 0.9999861197943578
2400.7809654506104 0.9999855456279513
2400.783366232776 0.99998632437329
2400.7857670173426 0.9999881380117581
2400.78816780431 0.9999902815045874
2400.790568593678 0.9999921625138362
2400.792969385447 0.9999934323724596
2400.795370179617 0.999994119082973
2400.797770976187 0.9999944734350394
2400.8001717751586 0.9999946707317245
2400.8025725765306 0.9999947886640043
2400.8049733803036 0.9999948598457621
2400.8073741864773 0.9999949004901536
2400.8097749950516 0.9999949199565835
2400.8121758060265 0.9999949241527561
2400.8145766194034 0.9999949169647041
2400.81697743518 0.9999949010722728
2400.819378253358 0.9999948783552896
2400.821779073937 0.9999948501647467
2400.8241798969157 0.9999948174941213
2400.826580722296 0.9999947810816706
2400.828981550077 0.9999947414867486
2400.831382380259 0.9999946991337799
2400.8337832128414 0.9999946543523415
2400.8361840478256 0.9999946073976537
2400.8385848852095 0.9999945584670711
2400.8409857249944 0.9999945077177123
2400.843386567181 0.9999944552706621
2400.8457874117676 0.9999944012197168
2400.8481882587557 0.9999943456376564
2400.850589108144 0.9999942885792937
2400.8529899599334 0.9999942300837079
2400.855390814124 0.9999941701770221
2400.857791670715 0.9999941088727343
2400.860192529707 0.9999940461731908
2400.8625933911 0.999993982071481
2400.8649942548936 0.9999939165464673
2400.867395121088 0.999993849565201
2400.8697959896836 0.9999937810747007
2400.87219686068 0.9999937110022245
2400.8745977340773 0.9999936392432159
2400.876998609875 0.9999935656417336
2400.8793994880743 0.9999934899677589
2400.8818003686742 0.9999934118511733
2400.8842012516748 0.9999933306682801
2400.8866021370764 0.999993245218332
2400.889003024879 0.9999931526654838
2400.8914039150823 0.9999930440534336
2400.8938048076866 0.9999928863435703
2400.8962057026915 0.9999925765851877
2400.8986066000975 0.9999919373334368
2400.9010074999046 0.9999909688318535
2400.9034084021123 0.9999901167252075
2400.9058093067215 0.9999899263305086
2400.908210213731 0.9999904837399358
2400.9106111231413 0.999991318259196
2400.9130120349528 0.9999918830722169
2400.9154129491653 0.9999920713152132
2400.917813865779 0.9999920641647047
2400.9202147847927 0.9999919931712236
2400.9226157062076 0.9999919025115358
2400.925016630024 0.9999918034442046
2400.927417556241 0.9999916990936034
2400.929818484859 0.9999915905956736
2400.932219415878 0.9999914784462814
2400.934620349298 0.9999913628713565
2400.9370212851186 0.9999912439618338
2400.93942222334 0.9999911217281664
2400.9418231639625 0.999990996135002
2400.944224106986 0.9999908671138632
2400.9466250524106 0.9999907345750285
2400.949026000236 0.9999905984076182
2400.9514269504625 0.9999904584847813
2400.95382790309 0.9999903146587147
2400.956228858118 0.9999901667683938
2400.9586298155473 0.9999900146233053
2400.9610307753774 0.9999898580125196
2400.963431737609 0.9999896966956826
2400.9658327022407 0.9999895303837744
2400.968233669274 0.9999893587834802
2400.9706346387084 0.9999891815254316
2400.9730356105433 0.9999889982029604
2400.975436584779 0.9999888083549746
2400.9778375614164 0.9999886114372556
2400.980238540454 0.9999884068014395
2400.9826395218934 0.9999881940492544
2400.985040505733 0.9999879723878726
2400.987441491974 0.999987741097171
2400.989842480616 0.9999874769244915
2400.9922434716586 0.9999871932746413
2400.9946444651027 0.999986900747297
2400.9970454609474 0.99998659812234
2400.999446459193 0.999986284131077
2401.00184745984 0.9999859574036971
2401.004248462888 0.9999856163431231
2401.006649468337 0.9999852590200458
2401.009050476187 0.9999848829856511
2401.0114514864376 0.999984485111427
2401.0138524990894 0.9999840614428238
2401.0162535141426 0.9999836071042506
2401.0186545315964 0.9999831163619102
2401.0210555514514 0.9999825826666912
2401.0234565737073 0.9999819986536594
2401.025857598364 0.9999813553657638
2401.028258625422 0.9999806380713873
2401.030659654881 0.9999798246628961
2401.0330606867415 0.9999788759866207
2401.0354617210023 0.9999777120201232
2401.0378627576647 0.9999760119009946
2401.0402637967277 0.9999712205562449
2401.042664838192 0.9999441055265046
2401.0450658820573 0.9998371105052578
2401.0474669283235 0.9997372667945835
2401.0498679769908 0.9997098056653287
2401.052269028059 0.999702684913705
2401.054670081529 0.9997112529596927
2401.0570711373994 0.9997419763887473
2401.059472195671 0.9998499118943944
2401.0618732563435 0.9999489267538187
2401.064274319417 0.9999720221176324
2401.0666753848914 0.9999762155689024
2401.0690764527676 0.9999778306111285
2401.0714775230445 0.9999789691369653
2401.0738785957224 0.9999799032505526
2401.076279670802 0.9999807067068002
2401.0786807482814 0.9999814165773145
2401.081081828163 0.9999820534242726
2401.083482910445 0.9999826298131743
2401.0858839951284 0.9999831546367521
2401.088285082213 0.999983635274037
2401.0906861716985 0.9999840782448197
2401.0930872635854 0.9999844892394548
2401.095488357873 0.9999848730289468
2401.097889454562 0.9999852334440302
2401.100290553651 0.9999855734689745
2401.1026916551423 0.9999858953858226
2401.1050927590345 0.9999862009533624
2401.107493865328 0.9999864915540533
2401.1098949740217 0.9999867683330963
2401.112296085117 0.9999870322775163
2401.114697198614 0.9999872842831078
2401.1170983145116 0.9999875252019255
2401.1194994328107 0.9999877558068536
2401.12190055351 0.9999879768695757
2401.1243016766116 0.9999881891083082
2401.1267028021134 0.9999883933084928
2401.1291039300168 0.9999885898706639
2401.131505060321 0.9999887794384567
2401.1339061930266 0.999988962555813
2401.1363073281336 0.9999891396785225
2401.138708465641 0.9999893112209638
2401.14110960555 0.9999894775269327
2401.14351074786 0.9999896389175613
2401.1459118925713 0.9999897956727044
2401.1483130396837 0.9999899480368262
2401.150714189197 0.9999900962268375
2401.153115341112 0.9999902404386768
2401.1555164954275 0.999990380846803
2401.1579176521445 0.9999905176118449
2401.160318811263 0.999990650882901
2401.1627199727823 0.9999907807963379
2401.1651211367025 0.9999909074833007
2401.1675223030243 0.9999910310678535
2401.169923471747 0.999991151668919
2401.172324642871 0.9999912694004996
2401.174725816396 0.9999913843727553
2401.1771269923224 0.9999914966910627
2401.17952817065 0.9999916064593335
2401.1819293513786 0.9999916828779881
2401.1843305345087 0.999991756140653
2401.1867317200395 0.9999918312770307
2401.1891329079717 0.9999919077706315
2401.1915340983055 0.9999919852228889
2401.19393529104 0.9999920633360387
2401.196336486176 0.9999921418914995
2401.198737683713 0.999992220744291
2401.201138883651 0.9999922998190335
2401.2035400859904 0.9999923791156403
2401.205941290731 0.99999245871999
2401.2083424978728 0.9999925388609043
2401.210743707416 0.9999926199607475
2401.21314491936 0.9999927027680385
2401.215546133705 0.9999927841288283
2401.217947350452 0.9999928640898567
2401.2203485695995 0.999992942695693
2401.2227497911485 0.9999930199850335
2401.225151015099 0.9999930959998228
2401.2275522414507 0.9999931707744504
2401.2299534702033 0.9999932443447875
2401.2323547013575 0.999993316742749
2401.2347559349128 0.999993388001563
2401.237157170869 0.9999934581484274
2401.239558409227 0.9999935272136223
2401.241959649986 0.9999935952232938
2401.244360893146 0.9999936622034487
2401.2467621387077 0.9999937281787448
2401.2491633866703 0.9999937918304836
2401.251564637034 0.9999938249821233
2401.253965889799 0.9999938704677788
2401.2563671449657 0.9999939213966315
2401.2587684025334 0.9999939750034027
2401.261169662502 0.9999940299806257
2401.263570924872 0.999994085628005
2401.2659721896434 0.9999941415328454
2401.2683734568163 0.9999941974438749
2401.2707747263903 0.9999942531973077
2401.273175998366 0.9999943086861676
2401.2755772727423 0.9999943638380918
