Atmospheric Species: CO
Metallicity: 100
C/O_Ratio: 1.0
Wavelength[nm] Flux_variation
899.9996421494948 0.9999998967368177
900.0005421495869 0.9999998967368385
900.001442150579 0.9999998967368594
900.0023421524711 0.9999998967368801
900.0032421552633 0.9999998967369009
900.0041421589555 0.9999998967369217
900.0050421635475 0.9999998967369426
900.0059421690396 0.9999998967369634
900.0068421754318 0.9999998967369841
900.0077421827239 0.999999896737005
900.0086421909161 0.9999998967370257
900.0095422000082 0.9999998967369786
900.0104422100004 0.9999998967368867
900.0113422208927 0.9999998967367948
900.0122422326849 0.9999998967367029
900.013142245377 0.9999998967366108
900.0140422589691 0.9999998967365189
900.0149422734613 0.9999998967364269
900.0158422888536 0.9999998967363349
900.0167423051458 0.9999998967362429
900.017642322338 0.999999896736151
900.0185423404303 0.9999998967360589
900.0194423594227 0.999999896735967
900.020342379315 0.999999896735875
900.0212424001073 0.999999896735783
900.0221424217997 0.999999896735691
900.0230424443921 0.9999998967355991
900.0239424678846 0.999999896735507
900.024842492277 0.9999998967354151
900.0257425175695 0.9999998967353231
900.0266425437621 0.999999896735231
900.0275425708543 0.999999896735139
900.028442598847 0.9999998967350471
900.0293426277395 0.999999896734955
900.0302426575322 0.999999896734863
900.0311426882248 0.9999998967347711
900.0320427198175 0.999999896734679
900.0329427523099 0.9999998967345869
900.0338427857027 0.999999896734495
900.0347428199954 0.9999998967344029
900.0356428551884 0.9999998967343109
900.0365428912813 0.9999998967342189
900.0374429282743 0.9999998967341268
900.0383429661671 0.9999998967340348
900.0392430049601 0.9999998967339427
900.0401430446531 0.9999998967338506
900.0410430852461 0.9999998967337587
900.041943126739 0.9999998967336665
900.0428431691322 0.9999998967335745
900.0437432124255 0.9999998967334824
900.0446432566187 0.9999998967333904
900.0455433017121 0.9999998967332984
900.0464433477051 0.9999998967332099
900.0473433945986 0.999999896733126
900.0482434423918 0.9999998967330418
900.0491434910853 0.9999998967329577
900.0500435406788 0.9999998967328736
900.0509435911723 0.9999998967327896
900.051843642566 0.9999998967327055
900.0527436948595 0.9999998967326214
900.0536437480532 0.9999998967325372
900.0545438021469 0.9999998967324532
900.0554438571407 0.999999896732369
900.0563439130347 0.9999998967322851
900.0572439698285 0.9999998967322008
900.0581440275225 0.9999998967321169
900.0590440861165 0.9999998967320327
900.0599441456106 0.9999998967319486
900.0608442060047 0.9999998967318646
900.0617442672989 0.9999998967317804
900.0626443294932 0.9999998967316962
900.0635443925875 0.9999998967316122
900.064444456582 0.999999896731528
900.0653445214763 0.9999998967314438
900.0662445872707 0.9999998967313598
900.0671446539653 0.9999998967312755
900.06804472156 0.9999998967311915
900.0689447900545 0.9999998967311073
900.0698448594495 0.9999998967310232
900.0707449297444 0.999999896730939
900.0716450009393 0.999999896730855
900.0725450730342 0.9999998967307707
900.0734451460294 0.9999998967306867
900.0743452199245 0.9999998967306024
900.0752452947198 0.9999998967305183
900.0761453704149 0.9999998967304342
900.0770454470104 0.9999998967303501
900.0779455245058 0.9999998967302658
900.0788456029013 0.9999998967301816
900.0797456821969 0.9999998967300975
900.0806457623926 0.9999998967300133
900.0815458434884 0.9999998967299292
900.0824459254843 0.999999896729845
900.0833460083802 0.9999998967297608
900.0842460921762 0.9999998967296765
900.0851461768722 0.9999998967295924
900.0860462624685 0.9999998967295082
900.0869463489646 0.999999896729424
900.087846436361 0.9999998967293398
900.0887465246574 0.9999998967292556
900.0896466138541 0.9999998967291714
900.0905467039507 0.9999998967290872
900.0914467949473 0.999999896729003
900.0923468868441 0.9999998967289188
900.093246979641 0.9999998967288346
900.0941470733379 0.9999998967287503
900.095047167935 0.9999998967286662
900.0959472634321 0.9999998967285819
900.0968473598296 0.9999998967284978
900.0977474571268 0.9999998967284134
900.0986475553243 0.9999998967283292
900.0995476544218 0.999999896728245
900.1004477544196 0.9999998967281608
900.1013478553174 0.9999998967280764
900.1022479571152 0.9999998967279923
900.1031480598132 0.999999896727908
900.1040481634111 0.9999998967278239
900.1049482679095 0.9999998967277395
900.1058483733077 0.9999998967276553
900.1067484796062 0.999999896727571
900.1076485868047 0.9999998967274868
900.1085486949032 0.9999998967274026
900.1094488039018 0.9999998967273183
900.1103489138007 0.999999896727234
900.1112490245996 0.9999998967271497
900.1121491362986 0.9999998967270655
900.1130492488979 0.9999998967269811
900.1139493623971 0.9999998967268969
900.1148494767965 0.9999998967268127
900.115749592096 0.9999998967267283
900.1166497082957 0.999999896726644
900.1175498253954 0.9999998967265598
900.1184499433953 0.9999998967264754
900.1193500622951 0.9999998967263912
900.1202501820952 0.9999998967263068
900.1211503027954 0.9999998967262226
900.1220504243958 0.9999998967261382
900.1229505468962 0.9999998967260539
900.1238506702967 0.9999998967259696
900.1247507945975 0.9999998967258853
900.1256509197983 0.999999896725801
900.1265510458993 0.9999998967257167
900.1274511729004 0.9999998967256324
900.1283513008017 0.999999896725548
900.129251429603 0.9999998967254637
900.1301515593042 0.9999998967253794
900.1310516899059 0.9999998967252951
900.1319518214076 0.9999998967252106
900.1328519538096 0.9999998967251263
900.1337520871116 0.999999896725042
900.1346522213137 0.9999998967249577
900.1355523564158 0.9999998967248732
900.1364524924182 0.999999896724789
900.1373526293208 0.9999998967247046
900.1382527671235 0.9999998967246202
900.1391529058263 0.9999998967245358
900.1400530454292 0.9999998967244516
900.1409531859323 0.9999998967243672
900.1418533273356 0.9999998967242828
900.1427534696388 0.9999998967241985
900.1436536128424 0.999999896724114
900.144553756946 0.9999998967240297
900.1454539019498 0.9999998967239453
900.1463540478538 0.9999998967238609
900.1472541946582 0.9999998967237765
900.1481543423622 0.9999998967236922
900.1490544909666 0.9999998967236078
900.149954640471 0.9999998967235234
900.1508547908757 0.9999998967234389
900.1517549421804 0.9999998967233545
900.1526550943853 0.9999998967232702
900.1535552474907 0.9999998967231858
900.1544554014959 0.9999998967231013
900.1553555564013 0.9999998967230169
900.156255712207 0.9999998967229324
900.1571558689127 0.9999998967228481
900.1580560265187 0.9999998967227637
900.1589561850247 0.9999998967226793
900.159856344431 0.9999998967225948
900.1607565047374 0.9999998967225104
900.161656665944 0.9999998967224261
900.1625568280508 0.9999998967223416
900.1634569910575 0.9999998967222572
900.1643571549646 0.9999998967221727
900.1652573197717 0.9999998967220882
900.166157485479 0.9999998967220037
900.1670576520864 0.9999998967219194
900.1679578195943 0.9999998967218349
900.1688579880022 0.9999998967217504
900.1697581573101 0.9999998967216659
900.1706583275183 0.9999998967215815
900.1715584986268 0.9999998967215632
900.1724586706354 0.999999896721592
900.1733588435441 0.9999998967216207
900.1742590173529 0.9999998967216495
900.1751591920622 0.9999998967216782
900.1760593676713 0.999999896721707
900.1769595441807 0.9999998967217357
900.1778597215903 0.9999998967217645
900.1787598999 0.9999998967217932
900.17966007911 0.9999998967218219
900.1805602592201 0.9999998967218506
900.1814604402305 0.9999998967218795
900.182360622141 0.9999998967219083
900.1832608049516 0.999999896721937
900.1841609886624 0.9999998967219658
900.1850611732734 0.9999998967219944
900.1859613587848 0.9999998967220232
900.1868615451962 0.999999896722052
900.1877617325077 0.9999998967220807
900.1886619207195 0.9999998967221095
900.1895621098315 0.9999998967221383
900.1904622998437 0.999999896722167
900.1913624907561 0.9999998967221958
900.1922626825685 0.9999998967222244
900.1931628752812 0.9999998967222533
900.1940630688943 0.9999998967222821
900.1949632634075 0.9999998967223107
900.1958634588207 0.9999998967223395
900.1967636551343 0.9999998967223683
900.1976638523481 0.9999998967223971
900.1985640504619 0.9999998967224257
900.199464249476 0.9999998967224546
900.2003644493906 0.9999998967224834
900.2012646502048 0.999999896722512
900.2021648519196 0.9999998967225407
900.2030650545345 0.9999998967225695
900.2039652580496 0.9999998967225983
900.2048654624649 0.999999896722627
900.2057656677805 0.9999998967226557
900.206665873996 0.9999998967226845
900.2075660811121 0.9999998967227133
900.2084662891282 0.9999998967227613
900.2093664980446 0.9999998967228475
900.2102667078611 0.9999998967229338
900.211166918578 0.9999998967230199
900.2120671301949 0.9999998967231061
900.2129673427122 0.9999998967231922
900.2138675561295 0.9999998967232785
900.2147677704475 0.9999998967233645
900.2156679856652 0.9999998967234507
900.2165682017832 0.999999896723537
900.2174684188016 0.9999998967236231
900.2183686367199 0.9999998967237094
900.2192688555386 0.9999998967237955
900.2201690752576 0.9999998967238818
900.2210692958768 0.9999998967239679
900.2219695173961 0.9999998967240542
900.2228697398157 0.9999998967241402
900.2237699631354 0.9999998967242265
900.2246701873555 0.9999998967243127
900.2255704124758 0.9999998967243989
900.2264706384963 0.9999998967244851
900.2273708654169 0.9999998967245713
900.2282710932378 0.9999998967246575
900.229171321959 0.9999998967247438
900.2300715515805 0.9999998967248299
900.2309717821018 0.9999998967249162
900.2318720135238 0.9999998967250022
900.2327722458459 0.9999998967250886
900.2336724790683 0.9999998967251746
900.2345727131908 0.999999896725261
900.2354729482137 0.9999998967253473
900.2363731841367 0.9999998967254334
900.2372734209599 0.9999998967255197
900.2381736586835 0.9999998967256059
900.2390738973071 0.9999998967256921
900.2399741368312 0.9999998967257783
900.2408743772554 0.9999998967258645
900.2417746185798 0.9999998967259507
900.2426748608045 0.999999896726037
900.2435751039295 0.9999998967261231
900.2444753479547 0.9999998967262094
900.2453755928801 0.9999998967262956
900.2462758387059 0.9999998967263819
900.2471760854318 0.999999896726468
900.2480763330581 0.9999998967265543
900.2489765815844 0.9999998967266406
900.2498768310113 0.9999998967267267
900.250777081338 0.999999896726813
900.2516773325652 0.9999998967268993
900.2525775846927 0.9999998967269855
900.2534778377203 0.9999998967270718
900.2543780916483 0.999999896727158
900.2552783464765 0.9999998967272443
900.2561786022051 0.9999998967273305
900.2570788588337 0.9999998967274167
900.2579791163627 0.999999896727503
900.2588793747918 0.9999998967275892
900.2597796341213 0.9999998967276755
900.260679894351 0.9999998967277618
900.261580155481 0.999999896727848
900.2624804175114 0.9999998967279343
900.2633806804417 0.9999998967280205
900.2642809442725 0.9999998967281067
900.2651812090035 0.9999998967281931
900.266081474635 0.9999998967282793
900.2669817411663 0.9999998967283655
900.2678820085983 0.9999998967284518
900.2687822769304 0.9999998967285381
900.2696825461628 0.9999998967286243
900.2705828162955 0.9999998967287107
900.2714830873283 0.9999998967287969
900.2723833592615 0.9999998967288832
900.273283632095 0.9999998967289695
900.2741839058286 0.9999998967290558
900.2750841804626 0.9999998967291419
900.275984455997 0.9999998967292283
900.2768847324317 0.9999998967293144
900.2777850097663 0.9999998967294008
900.2786852880015 0.9999998967294871
900.2795855671369 0.9999998967295733
900.2804858471725 0.9999998967296596
900.2813861281085 0.999999896729746
900.2822864099447 0.9999998967298322
900.2831866926813 0.9999998967299185
900.2840869763181 0.9999998967300047
900.2849872608552 0.9999998967300909
900.2858875462927 0.9999998967301773
900.2867878326304 0.9999998967302637
900.2876881198681 0.99999989673035
900.2885884080065 0.9999998967304362
900.2894886970449 0.9999998967305225
900.2903889869838 0.9999998967306089
900.2912892778226 0.9999998967306952
900.292189569562 0.9999998967307813
900.2930898622019 0.9999998967308676
900.2939901557417 0.999999896730954
900.2948904501819 0.9999998967310403
900.2957907455225 0.9999998967311265
900.2966910417633 0.9999998967312129
900.2975913389042 0.9999998967312993
900.2984916369458 0.9999998967313856
900.2993919358875 0.9999998967314718
900.3002922357296 0.9999998967315582
900.3011925364718 0.9999998967316445
900.3020928381144 0.9999998967317307
900.3029931406575 0.999999896731817
900.3038934441007 0.9999998967319034
900.3047937484444 0.9999998967319897
900.3056940536881 0.999999896732076
900.3065943598324 0.9999998967321623
900.3074946668769 0.9999998967322486
900.3083949748217 0.999999896732335
900.309295283667 0.9999998967324214
900.3101955934121 0.9999998967325077
900.3110959040579 0.9999998967325939
900.3119962156038 0.9999998967326803
900.3128965280501 0.9999998967327666
900.3137968413969 0.9999998967328529
900.3146971556439 0.9999998967329393
900.3155974707911 0.9999998967330256
900.3164977868386 0.999999896733112
900.3173981037866 0.9999998967331983
900.3182984216348 0.9999998967332847
900.3191987403833 0.999999896733371
900.3200990600324 0.9999998967334573
900.3209993805816 0.9999998967335436
900.321899702031 0.9999998967336299
900.3228000243807 0.9999998967337164
900.323700347631 0.9999998967338026
900.3246006717815 0.9999998967338891
900.3255009968323 0.9999998967339754
900.3264013227833 0.9999998967340618
900.3273016496348 0.999999896734148
900.3282019773867 0.9999998967342344
900.3291023060387 0.9999998967343207
900.3300026355911 0.9999998967344071
900.3309029660439 0.9999998967344935
900.331803297397 0.9999998967345799
900.3327036296505 0.9999998967346663
900.3336039628042 0.9999998967347562
900.3345042968583 0.9999998967348495
900.3354046318127 0.9999998967349426
900.3363049676675 0.9999998967350359
900.3372053044228 0.999999896735129
900.3381056420781 0.9999998967352223
900.3390059806339 0.9999998967353155
900.33990632009 0.9999998967354088
900.3408066604466 0.9999998967355019
900.3417070017032 0.9999998967355952
900.3426073438604 0.9999998967356883
900.343507686918 0.9999998967357816
900.3444080308757 0.9999998967358749
900.3453083757339 0.9999998967359681
900.3462087214925 0.9999998967360614
900.3471090681511 0.9999998967361545
900.3480094157104 0.9999998967362478
900.34890976417 0.9999998967363409
900.3498101135299 0.9999998967364343
900.3507104637902 0.9999998967365277
900.3516108149508 0.9999998967366208
900.3525111670116 0.9999998967367141
900.353411519973 0.9999998967368073
900.3543118738346 0.9999998967369006
900.3552122285967 0.9999998967369937
900.3561125842591 0.9999998967370871
900.3570129408217 0.9999998967371803
900.3579132982849 0.9999998967372735
900.3588136566484 0.9999998967373668
900.3597140159121 0.99999989673746
900.3606143760762 0.9999998967375533
900.3615147371407 0.9999998967376464
900.3624150991056 0.9999998967377398
900.3633154619708 0.9999998967378331
900.3642158257364 0.9999998967379263
900.3651161904023 0.9999998967380196
900.3660165559686 0.9999998967381128
900.3669169224354 0.9999998967382061
900.3678172898025 0.9999998967382993
900.3687176580698 0.9999998967383926
900.3696180272376 0.9999998967384858
900.370518397306 0.9999998967385796
900.3714187682745 0.9999998967386757
900.3723191401434 0.9999998967387718
900.3732195129127 0.9999998967388678
900.3741198865823 0.9999998967389638
900.3750202611524 0.9999998967390599
900.3759206366227 0.9999998967391559
900.3768210129937 0.9999998967392518
900.3777213902647 0.9999998967393479
900.3786217684362 0.999999896739444
900.3795221475082 0.99999989673954
900.3804225274805 0.9999998967396361
900.3813229083532 0.9999998967397321
900.3822232901261 0.999999896739828
900.3831236727998 0.9999998967399242
900.3840240563736 0.9999998967400202
900.3849244408478 0.9999998967401162
900.3858248262225 0.9999998967402124
900.3867252124975 0.9999998967403084
900.3876255996728 0.9999998967404045
900.3885259877486 0.9999998967405005
900.3894263767248 0.9999998967405965
900.3903267666016 0.9999998967406926
900.3912271573782 0.9999998967407886
900.3921275490555 0.9999998967408847
900.3930279416334 0.9999998967409808
900.3939283351115 0.9999998967410768
900.3948287294899 0.9999998967411728
900.3957291247688 0.9999998967412689
900.3966295209481 0.999999896741365
900.3975299180277 0.9999998967414611
900.3984303160078 0.9999998967415571
900.3993307148883 0.9999998967416531
900.4002311146692 0.9999998967417492
900.4011315153505 0.9999998967418452
900.4020319169321 0.9999998967419413
900.402932319414 0.9999998967420375
900.4038327227967 0.9999998967421335
900.4047331270797 0.9999998967422297
900.405633532263 0.9999998967423257
900.4065339383466 0.9999998967424218
900.4074343453307 0.9999998967425179
900.4083347532152 0.9999998967426139
900.4092351620001 0.99999989674271
900.4101355716855 0.999999896742806
900.4110359822713 0.9999998967429021
900.4119363937574 0.9999998967429982
900.4128368061439 0.9999998967430943
900.4137372194309 0.9999998967431905
900.4146376336182 0.9999998967432865
900.4155380487061 0.9999998967433826
900.4164384646944 0.9999998967434787
900.4173388815831 0.9999998967435747
900.4182392993721 0.9999998967436708
900.4191397180616 0.9999998967437669
900.4200401376515 0.9999998967438629
900.4209405581418 0.9999998967439591
900.4218409795324 0.9999998967440552
900.4227414018235 0.9999998967441514
900.423641825015 0.9999998967442474
900.424542249107 0.9999998967443435
900.4254426740995 0.9999998967444397
900.4263430999921 0.9999998967445357
900.4272435267856 0.9999998967446317
900.4281439544791 0.9999998967447279
900.4290443830733 0.999999896744824
900.4299448125679 0.9999998967449201
900.4308452429628 0.9999998967450161
900.4317456742582 0.9999998967451122
900.4326461064541 0.9999998967452085
900.4335465395504 0.9999998967453045
900.4344469735471 0.9999998967454006
900.4353474084443 0.9999998967454967
900.4362478442418 0.9999998967455929
900.4371482809398 0.999999896745689
900.4380487185383 0.9999998967457852
900.4389491570372 0.9999998967458812
900.4398495964364 0.9999998967459773
900.4407500367362 0.9999998967460734
900.4416504779364 0.9999998967461695
900.4425509200371 0.9999998967462658
900.4434513630382 0.9999998967463618
900.4443518069397 0.999999896746458
900.4452522517419 0.9999998967465541
900.4461526974443 0.9999998967466502
900.4470531440471 0.9999998967467464
900.4479535915502 0.9999998967468424
900.448854039954 0.9999998967469386
900.4497544892585 0.9999998967470346
900.4506549394631 0.9999998967471307
900.4515553905683 0.9999998967472269
900.4524558425738 0.9999998967473231
900.4533562954798 0.9999998967474193
900.4542567492863 0.9999998967475153
900.4551572039933 0.9999998967476115
900.4560576596007 0.9999998967477076
900.4569581161086 0.9999998967478038
900.4578585735169 0.9999998967478999
900.4587590318256 0.999999896747996
900.4596594910348 0.9999998967480921
900.4605599511445 0.9999998967481882
900.4614604121547 0.9999998967482845
900.4623608740653 0.9999998967483806
900.4632613368763 0.9999998967484769
900.4641618005877 0.9999998967485729
900.4650622651999 0.9999998967486691
900.4659627307124 0.9999998967487653
900.4668631971253 0.9999998967488614
900.4677636644387 0.9999998967489575
900.4686641326526 0.9999998967490537
900.4695646017668 0.9999998967491498
900.4704650717817 0.9999998967492459
900.4713655426972 0.9999998967493421
900.4722660145127 0.9999998967494383
900.473166487229 0.9999998967495346
900.4740669608458 0.9999998967496306
900.4749674353628 0.9999998967497268
900.4758679107805 0.9999998967498229
900.4767683870987 0.9999998967499191
900.4776688643173 0.9999998967500153
900.4785693424363 0.9999998967501115
900.479469821456 0.9999998967502076
900.4803703013758 0.9999998967503038
900.4812707821965 0.9999998967504
900.4821712639174 0.9999998967504963
900.4830717465388 0.9999998967505923
900.4839722300608 0.9999998967506885
900.4848727144832 0.9999998967507847
900.4857731998062 0.9999998967508809
