Atmospheric Species: CH4
Metallicity: 100
C/O_Ratio: 1.0
Wavelength[nm] Flux_variation
2199.999397930935 0.9998649049287288
2200.001597931433 0.9998761562370744
2200.003797934131 0.9998863680167414
2200.0059979390285 0.9998976198382545
2200.0081979461265 0.9999128190759348
2200.010397955424 0.9999330352122398
2200.0125979669224 0.9999558319106426
2200.01479798062 0.9999710641958117
2200.016997996518 0.9999686511278092
2200.019198014616 0.9999564457678535
2200.021398034914 0.9999417412430214
2200.023598057412 0.9999252020819954
2200.0257980821098 0.9999087450776132
2200.027998109008 0.9998961094014059
2200.030198138106 0.9998897748680194
2200.032398169404 0.9998906711183635
2200.034598202902 0.9998987548247558
2200.0367982386 0.9999130665363242
2200.0389982764987 0.9999307837740304
2200.041198316597 0.9999455151032987
2200.043398358895 0.9999526832462536
2200.0455984033933 0.9999570298636146
2200.0477984500917 0.9999631179617873
2200.04999849899 0.9999707893156797
2200.052198550088 0.9999755748497627
2200.0543986033867 0.999971720459432
2200.0565986588854 0.9999615243919502
2200.058798716584 0.9999510018294018
2200.0609987764824 0.9999429858747385
2200.0631988385812 0.9999386130295541
2200.06539890288 0.9999384315121221
2200.0675989693787 0.9999422514086375
2200.0697990380777 0.9999485303535344
2200.071999108977 0.9999519410822132
2200.074199182076 0.9999388719748794
2200.076399257375 0.9999098522423637
2200.078599334874 0.9998809042264203
2200.0807994145734 0.9998579798120233
2200.082999496473 0.9998427456602809
2200.0851995805724 0.999835647258094
2200.087399666872 0.9998366307817192
2200.0895997553716 0.9998456735566361
2200.0917998460714 0.9998626432375484
2200.093999938971 0.9998865838877661
2200.096200034071 0.9999151628572073
2200.098400131371 0.9999439668240487
2200.100600230871 0.9999656015352626
2200.1028003325714 0.9999742399906935
2200.1050004364715 0.9999726345578454
2200.107200542572 0.9999670002802157
2200.1094006508724 0.9999615660403449
2200.111600761373 0.9999585231218179
2200.113800874074 0.9999581310184681
2200.116000988975 0.999958229858502
2200.118201106076 0.9999553487666062
2200.120401225377 0.9999496926178087
2200.1226013468786 0.9999452875497028
2200.1248014705798 0.9999450503022168
2200.1270015964815 0.999949379446889
2200.129201724583 0.9999559815458567
2200.1314018548846 0.9999606278048827
2200.1336019873866 0.9999611421675042
2200.1358021220885 0.9999575518469507
2200.1380022589906 0.9999504195940394
2200.1402023980927 0.9999430926711064
2200.1424025393953 0.9999392432233004
2200.1446026828976 0.999939791739826
2200.1468028286004 0.9999390818983342
2200.149002976503 0.9999243036577615
2200.151203126606 0.999901646529006
2200.1534032789095 0.999882611137063
2200.1556034334126 0.999870408132567
2200.157803590116 0.9998658248772605
2200.16000374902 0.9998690644522482
2200.162203910123 0.9998800053563623
2200.1644040734272 0.9998979604601396
2200.1666042389315 0.9999206192605733
2200.168804406636 0.9999408038975113
2200.17100457654 0.9999491329569337
2200.173204748645 0.9999499581174603
2200.1754049229494 0.9999493777633123
2200.1776050994545 0.999942984233123
2200.179805278159 0.99992609493309
2200.182005459065 0.9999073916862771
2200.18420564217 0.9998926408821687
2200.186405827476 0.9998799732604601
2200.188606014982 0.9998636448464164
2200.1908062046878 0.9998443077481879
2200.193006396594 0.9998286007644457
2200.1952065907003 0.9998199651915767
2200.197406787007 0.9998189708943289
2200.1996069855136 0.9998257584555963
2200.201807186221 0.999840723270174
2200.204007389128 0.9998638850863786
2200.2062075942354 0.9998936870755709
2200.208407801543 0.9999233708076565
2200.2106080110507 0.9999356342348985
2200.2128082227587 0.9999341717491524
2200.215008436667 0.9999290084076922
2200.2172086527758 0.9999194761334036
2200.2194088710844 0.9999098734024182
2200.221609091593 0.9999053202125648
2200.2238093143023 0.9999077552432762
2200.2260095392116 0.9999171369053322
2200.228209766321 0.9999309986663135
2200.230409995631 0.9999413278802323
2200.232610227141 0.9999422637883895
2200.2348104608513 0.9999414940256007
2200.237010696762 0.9999450293697394
2200.2392109348725 0.9999537316189421
2200.2414111751837 0.999965726666848
2200.243611417695 0.9999767091113402
2200.245811662406 0.9999822188518815
2200.248011909318 0.9999801425818905
2200.25021215843 0.9999698144846766
2200.2524124097417 0.9999545642798029
2200.254612663254 0.9999404662811956
2200.256812918967 0.9999312660742854
2200.2590131768798 0.9999282626031359
2200.2612134369933 0.9999315469660842
2200.2634136993065 0.9999403993430096
2200.26561396382 0.9999530151706649
2200.2678142305344 0.9999657926592743
2200.2700144994487 0.9999722913377546
2200.272214770563 0.9999585136264559
2200.274415043878 0.9999258784894876
2200.2766153193934 0.9998936788858859
2200.2788155971084 0.9998675964050076
2200.281015877024 0.9998490356701115
2200.28321615914 0.9998385929167205
2200.2854164434566 0.9998362690193396
2200.287616729973 0.9998418920818098
2200.2898170186895 0.9998549378479948
2200.2920173096068 0.999872765142418
2200.294217602724 0.9998884904840615
2200.296417898042 0.9998982513133604
2200.29861819556 0.9999080263622335
2200.3008184952782 0.9999207655085798
2200.3030187971967 0.9999233661773584
2200.3052191013153 0.9999044090976602
2200.307419407635 0.9998839466734935
2200.309619716154 0.9998701214874425
2200.3118200268736 0.9998640176323708
2200.314020339794 0.9998651542990719
2200.3162206549146 0.9998705874754451
2200.3184209722353 0.9998732396370247
2200.320621291756 0.999870497508116
2200.3228216134776 0.9998692368902862
2200.3250219373995 0.9998742649667647
2200.3272222635214 0.9998867407321219
2200.3294225918435 0.9999063028440556
2200.3316229223665 0.9999310221326996
2200.3338232550896 0.9999517040105694
2200.3360235900127 0.9999524558428169
2200.3382239271364 0.9999447603174106
2200.34042426646 0.9999405452077184
2200.342624607985 0.9999416745935639
2200.3448249517096 0.999947606474423
2200.3470252976344 0.9999568539795352
2200.34922564576 0.9999661026544002
2200.3514259960857 0.9999694504155442
2200.3536263486117 0.9999650104074668
2200.355826703338 0.9999576696454489
2200.3580270602647 0.9999491164023419
2200.3602274193922 0.9999334970249065
2200.36242778072 0.9999080945449492
2200.3646281442475 0.9998815488337542
2200.3668285099757 0.9998601048345712
2200.3690288779044 0.999846044462437
2200.371229248033 0.99984002650136
2200.3734296203625 0.9998420843593622
2200.3756299948923 0.9998520210584853
2200.377830371622 0.9998685518746108
2200.3800307505526 0.9998865972889308
2200.3822311316835 0.9998984029571472
2200.3844315150145 0.9999059412546172
2200.386631900546 0.9999152317843537
2200.388832288278 0.9999252718264683
2200.3910326782106 0.9999321973472418
2200.3932330703433 0.9999376694959536
2200.3954334646764 0.9999446228293052
2200.39763386121 0.9999475103467812
2200.399834259944 0.9999370061927331
2200.402034660878 0.9999218762770068
2200.404235064013 0.9999113254436214
2200.4064354693483 0.9999075061648115
2200.4086358768836 0.9999101643659972
2200.4108362866195 0.999917478101028
2200.413036698556 0.9999263044728257
2200.415237112693 0.9999348219921504
2200.4174375290304 0.9999430123015113
2200.419637947568 0.9999418134244146
2200.421838368306 0.9999190954921883
2200.4240387912446 0.9998909720466194
2200.4262392163832 0.9998676037971715
2200.428439643723 0.9998514094223829
2200.430640073262 0.9998431599697722
2200.432840505003 0.9998429528757633
2200.435040938943 0.999850626554101
2200.4372413750843 0.9998650836428288
2200.4394418134257 0.9998788473761973
2200.4416422539675 0.999873747469241
2200.4438426967104 0.999858036284061
2200.4460431416533 0.9998468568999892
2200.4482435887962 0.9998433710792584
2200.45044403814 0.9998479475238389
2200.452644489684 0.9998605821579896
2200.4548449434287 0.9998808381500264
2200.457045399374 0.9999074321624666
2200.4592458575194 0.9999378383496444
2200.4614463178655 0.9999669369631743
2200.463646780412 0.999987392728177
2200.465847245159 0.9999969605382687
2200.468047712106 1.0
2200.470248181254 0.9999984888557758
2200.4724486526025 0.9999875421299173
2200.4746491261512 0.9999662251041107
2200.4768496019005 0.9999422808674672
2200.4790500798504 0.9999209727907139
2200.4812505600003 0.9999041131939285
2200.483451042351 0.9998922474750191
2200.4856515269025 0.9998855257564105
2200.487852013654 0.999884160366777
2200.4900525026064 0.999888572136478
2200.492252993759 0.9998991130448583
2200.494453487112 0.9999154224206346
2200.4966539826655 0.9999351630445908
2200.49885448042 0.9999530546462874
2200.5010549803746 0.9999661762266505
2200.5032554825298 0.9999764284757348
2200.5054559868854 0.9999805820226227
2200.5076564934416 0.9999743297714915
2200.5098570021983 0.9999632537657261
2200.5120575131555 0.9999516381505373
2200.514258026313 0.9999374792332604
2200.5164585416715 0.9999201125063621
2200.5186590592302 0.9999037997448977
2200.5208595789895 0.9998922687657885
2200.5230601009494 0.9998870069627368
2200.5252606251097 0.9998874054019904
2200.5274611514706 0.9998879804497489
2200.529661680032 0.9998790528143737
2200.531862210794 0.9998646783900699
2200.5340627437563 0.9998541706573157
2200.5362632789193 0.9998498139626819
2200.5384638162827 0.9998488740532043
2200.5406643558467 0.9998450203311193
2200.5428648976113 0.9998369416724205
2200.5450654415763 0.9998302688032674
2200.547265987742 0.9998283865673337
2200.549466536108 0.9998321004064983
2200.5516670866746 0.9998415975413467
2200.553867639442 0.9998560308485206
2200.55606819441 0.9998690582333296
2200.5582687515785 0.99986776734498
2200.560469310947 0.9998579057882797
2200.562669872517 0.9998517663104719
2200.564870436287 0.9998529196108192
2200.5670710022578 0.9998620182033171
2200.5692715704286 0.999878911158505
2200.571472140801 0.9999015836584195
2200.573672713373 0.9999174730152783
2200.575873288146 0.9999109474629262
2200.578073865119 0.9999007523956991
2200.5802744442935 0.9998969236219539
2200.5824750256684 0.9999006269155531
2200.5846756092433 0.9999114816548387
2200.586876195019 0.9999278067614631
2200.5890767829956 0.9999454046978815
2200.5912773731725 0.9999592251814139
2200.59347796555 0.9999688283371675
2200.5956785601284 0.99997391389834
2200.597879156907 0.9999726624844542
2200.6000797558863 0.9999674959725715
2200.6022803570663 0.9999611925093478
2200.604480960447 0.9999528337974672
2200.6066815660283 0.9999396238528632
2200.60888217381 0.9999235127465973
2200.611082783792 0.9999099533116493
2200.613283395975 0.9999022669002643
2200.6154840103586 0.9999016757555916
2200.617684626943 0.999908427287773
2200.619885245728 0.9999221822011752
2200.6220858667134 0.9999417921166108
2200.6242864898995 0.9999634516131994
2200.626487115286 0.9999768742142577
2200.6286877428734 0.9999751618555228
2200.6308883726615 0.9999663434894923
2200.63308900465 0.9999577087690181
2200.6352896388394 0.9999519405354637
2200.637490275229 0.9999498447763997
2200.63969091382 0.9999515707191412
2200.641891554611 0.9999565783107399
2200.6440921976027 0.9999627583447741
2200.646292842795 0.9999665405816595
2200.6484934901882 0.9999656114253338
2200.650694139782 0.999959695032037
2200.6528947915763 0.9999508527222839
2200.655095445571 0.9999431294623234
2200.657296101767 0.9999388529283876
2200.659496760163 0.9999379296515676
2200.66169742076 0.9999395202110848
2200.663898083558 0.9999435476080256
2200.6660987485557 0.9999503098334188
2200.668299415755 0.9999588333150043
2200.6705000851543 0.9999647962029824
2200.6727007567547 0.9999582163352775
2200.6749014305556 0.9999390825515224
2200.677102106557 0.9999202642804298
2200.67930278476 0.9999074924183927
2200.6815034651627 0.9999020801416945
2200.6837041477665 0.9999043028709474
2200.685904832571 0.9999139895232333
2200.6881055195763 0.999930488089939
2200.6903062087817 0.9999520473023277
2200.6925069001886 0.9999733552407725
2200.6947075937956 0.9999842047317299
2200.6969082896035 0.9999813374771547
2200.699108987612 0.9999714670152644
2200.701309687821 0.9999609838799011
2200.7035103902313 0.9999534018899823
2200.7057110948417 0.9999492599555324
2200.707911801653 0.9999453681815131
2200.710112510665 0.9999334731733522
2200.7123132218776 0.9999087970717685
2200.7145139352915 0.9998799665726852
2200.7167146509055 0.9998549915774408
2200.7189153687204 0.9998371690997205
2200.721116088736 0.9998274485956103
2200.7233168109524 0.9998257563623548
2200.72551753537 0.9998320394793546
2200.7277182619873 0.9998465015872194
2200.729918990806 0.999868948791187
2200.7321197218253 0.999897861129755
2200.7343204550452 0.9999287016660509
2200.736521190466 0.9999494626032236
2200.7387219280877 0.9999548204749228
2200.7409226679097 0.9999557191987463
2200.7431234099327 0.9999572858177402
2200.7453241541566 0.9999584871833541
2200.747524900581 0.9999572382115544
2200.749725649206 0.9999541558483269
2200.751926400032 0.9999509848465911
2200.754127153059 0.9999476241126093
2200.7563279082865 0.9999425976826862
2200.7585286657145 0.9999356683130549
2200.7607294253435 0.9999282332374986
2200.7629301871734 0.9999222973077885
2200.765130951204 0.9999198321052791
2200.767331717435 0.9999214537217096
2200.769532485867 0.9999247955875985
2200.7717332565 0.9999249768399598
2200.7739340293333 0.9999210755028762
2200.7761348043678 0.9999165183936949
2200.7783355816027 0.9999129118817509
2200.7805363610387 0.9999105428150363
2200.782737142675 0.9999103870945597
2200.7849379265126 0.9999138920380893
2200.787138712551 0.999922141644847
2200.78933950079 0.999935361069671
2200.79154029123 0.9999518089524265
2200.7937410838704 0.9999650982391178
2200.795941878712 0.9999688493151347
2200.798142675754 0.9999680136703561
2200.800343474997 0.9999680212473473
2200.802544276441 0.9999690684267882
2200.804745080086 0.9999703992187196
2200.806945885931 0.9999729184338104
2200.8091466939773 0.9999775833089604
2200.811347504224 0.9999828230723143
2200.813548316672 0.9999842842281359
2200.8157491313204 0.9999809105202893
2200.8179499481703 0.9999772409845732
2200.8201507672206 0.9999764049340791
2200.8223515884715 0.999978461422257
2200.8245524119234 0.9999818419732331
2200.826753237576 0.9999837122255605
2200.8289540654296 0.999981121522735
2200.8311548954844 0.9999752451718593
2200.833355727739 0.9999701705822972
2200.8355565621955 0.9999679395632945
2200.8377573988523 0.9999675455355523
2200.83995823771 0.9999656350977347
2200.842159078769 0.9999600463104388
2200.844359922028 0.9999529240706886
2200.8465607674884 0.9999472127721459
2200.8487616151497 0.9999443323965955
2200.850962465012 0.9999448240482371
2200.853163317074 0.9999481829437793
2200.855364171338 0.999951226184922
2200.8575650278026 0.9999498218856028
2200.8597658864683 0.9999461168206656
2200.8619667473345 0.99994520412434
2200.864167610401 0.999949220103615
2200.8663684756693 0.9999575738516867
2200.8685693431385 0.9999673825124377
2200.870770212808 0.9999747816874107
2200.8729710846787 0.9999785497559796
2200.87517195875 0.999979459306714
2200.8773728350225 0.9999768582712457
2200.8795737134956 0.9999697363684508
2200.8817745941697 0.9999591412734844
2200.8839754770443 0.9999473629361532
2200.8861763621203 0.9999363441297309
2200.888377249397 0.9999276191309403
2200.890578138875 0.9999226512731516
2200.8927790305534 0.9999226949141936
2200.8949799244324 0.999928490264844
2200.897180820513 0.9999400968677016
2200.899381718794 0.9999565684664811
2200.901582619276 0.9999737598429443
2200.903783521959 0.9999805036332642
2200.905984426843 0.9999745828251145
2200.908185333928 0.9999677563170212
2200.9103862432135 0.9999650573563947
2200.9125871547003 0.999966224066491
2200.9147880683877 0.9999692904335985
2200.916988984276 0.9999728453268151
2200.9191899023654 0.9999768717304596
2200.921390822655 0.9999802520077765
2200.9235917451465 0.9999800806995185
2200.9257926698388 0.9999759995851293
2200.9279935967315 0.9999702061444492
2200.9301945258253 0.9999638447269787
2200.9323954571205 0.9999565941204785
2200.934596390616 0.9999457820081906
2200.936797326313 0.9999291668098221
2200.9389982642106 0.999911302286428
2200.941199204309 0.9998977533168375
2200.9434001466084 0.9998909926489373
2200.945601091109 0.9998917494145424
2200.9478020378106 0.9998999134894901
2200.9500029867127 0.9999145316624551
2200.952203937816 0.9999330158139584
2200.9544048911207 0.9999496133690963
2200.9566058466257 0.9999567479072101
2200.958806804332 0.9999535924457325
2200.9610077642396 0.9999468406680094
2200.9632087263476 0.9999419383717897
2200.9654096906565 0.9999411362367021
2200.967610657167 0.9999443830513084
2200.969811625878 0.9999484811843028
2200.9720125967897 0.9999483409299406
2200.974213569903 0.9999448569916604
2200.976414545217 0.9999426720231999
2200.9786155227316 0.9999432969540756
2200.980816502448 0.9999457020059752
2200.9830174843646 0.9999470080509291
2200.9852184684823 0.9999437264853613
2200.9874194548015 0.9999377246317194
2200.989620443321 0.999934445592844
2200.991821434042 0.9999368671064549
2200.994022426964 0.9999454027444271
2200.9962234220866 0.9999580465426131
2200.9984244194106 0.9999679659592557
2201.000625418935 0.9999671647747603
2201.002826420661 0.9999598110826314
2201.0050274245878 0.9999531565265739
2201.0072284307157 0.9999493508673488
2201.0094294390447 0.9999466861370137
2201.0116304495746 0.9999402629911438
2201.0138314623055 0.9999278749242128
2201.0160324772373 0.9999143320668494
2201.01823349437 0.9999043298061668
2201.020434513704 0.9999000100211766
2201.022635535239 0.9999021048919872
2201.0248365589746 0.9999099799751143
2201.027037584912 0.9999193754327734
2201.0292386130495 0.9999199612499249
2201.0314396433887 0.9999101090582162
2201.033640675929 0.9998996994698508
2201.03584171067 0.9998941146978217
2201.038042747612 0.9998951158495946
2201.0402437867556 0.9999032020547328
2201.0424448280996 0.9999181284244697
2201.044645871645 0.999938133004518
2201.046846917391 0.9999536897572786
2201.0490479653386 0.9999477829746976
2201.051249015487 0.9999318885363596
2201.0534500678364 0.9999187645434222
2201.055651122387 0.9999114022163258
2201.0578521791385 0.9999104847518073
2201.0600532380913 0.9999153774496672
2201.062254299245 0.9999227919364005
2201.0644553626 0.9999251891629047
2201.066656428156 0.9999168958182624
2201.0688574959127 0.9999024116358475
2201.0710585658708 0.9998888896084213
2201.07325963803 0.9998802331682373
2201.07546071239 0.9998779832991003
2201.077661788951 0.9998825813269799
2201.0798628677135 0.9998935836147769
2201.082063948677 0.999908340250182
2201.0842650318414 0.9999190991422472
2201.086466117207 0.9999194437334707
2201.088667204773 0.9999130030707721
2201.090868294541 0.9999026283282824
2201.0930693865093 0.9998915258048436
2201.0952704806796 0.9998838962161907
2201.0974715770503 0.9998821204357198
2201.0996726756225 0.9998866547296655
2201.1018737763957 0.9998961192000555
2201.10407487937 0.9999067447174266
2201.1062759845454 0.9999142915277859
2201.1084770919215 0.999919161141365
2201.110678201499 0.9999248770254259
2201.112879313278 0.9999337070130065
2201.1150804272575 0.9999451699114138
2201.1172815434384 0.9999524569475301
2201.1194826618207 0.9999458518488984
2201.1216837824036 0.9999324770937028
2201.123884905188 0.9999217627889292
2201.1260860301736 0.9999161963035531
2201.12828715736 0.9999153300689416
2201.1304882867475 0.999917360413388
2201.132689418336 0.9999201057359232
2201.1348905521263 0.9999208392365337
2201.1370916881174 0.9999146668413962
2201.1392928263094 0.9999009037882797
2201.141493966703 0.9998863953366152
2201.1436951092974 0.9998761135563434
2201.145896254093 0.9998715580289206
2201.1480974010897 0.9998724921614919
2201.1502985502875 0.9998774563451809
2201.1524997016863 0.9998825824970494
2201.1547008552866 0.9998809673859427
2201.1569020110883 0.9998727554869106
2201.159103169091 0.9998659582458551
2201.161304329294 0.9998646914085065
2201.163505491699 0.9998685894241217
2201.165706656305 0.999874030315174
2201.1679078231123 0.9998773567711373
2201.1701089921207 0.9998803156644366
