Atmospheric Species: CH4
Metallicity: 10000
C/O_Ratio: 0.5
Wavelength[nm] Flux_variation
899.9996421494948 0.9999999854101523
900.0005421495869 0.9999999854101466
900.001442150579 0.9999999854101442
900.0023421524711 0.9999999854101446
900.0032421552633 0.9999999854101466
900.0041421589555 0.9999999854101488
900.0050421635475 0.9999999854101488
900.0059421690396 0.9999999854101453
900.0068421754318 0.9999999854101389
900.0077421827239 0.9999999854101321
900.0086421909161 0.9999999854101289
900.0095422000082 0.9999999854101326
900.0104422100004 0.9999999854101438
900.0113422208927 0.9999999854101604
900.0122422326849 0.9999999854101798
900.013142245377 0.9999999854101987
900.0140422589691 0.9999999854102161
900.0149422734613 0.9999999854102307
900.0158422888536 0.999999985410243
900.0167423051458 0.9999999854102534
900.017642322338 0.9999999854102625
900.0185423404303 0.9999999854102709
900.0194423594227 0.9999999854102798
900.020342379315 0.9999999854102899
900.0212424001073 0.9999999854103014
900.0221424217997 0.9999999854103141
900.0230424443921 0.999999985410327
900.0239424678846 0.9999999854103394
900.024842492277 0.9999999854103506
900.0257425175695 0.9999999854103605
900.0266425437621 0.9999999854103692
900.0275425708543 0.9999999854103775
900.028442598847 0.9999999854103861
900.0293426277395 0.9999999854103959
900.0302426575322 0.9999999854104071
900.0311426882248 0.9999999854104199
900.0320427198175 0.9999999854104342
900.0329427523099 0.9999999854104508
900.0338427857027 0.9999999854104694
900.0347428199954 0.9999999854104905
900.0356428551884 0.9999999854105135
900.0365428912813 0.9999999854105369
900.0374429282743 0.9999999854105586
900.0383429661671 0.9999999854105747
900.0392430049601 0.9999999854105821
900.0401430446531 0.9999999854105793
900.0410430852461 0.9999999854105672
900.041943126739 0.9999999854105487
900.0428431691322 0.9999999854105274
900.0437432124255 0.9999999854105064
900.0446432566187 0.9999999854104877
900.0455433017121 0.9999999854104724
900.0464433477051 0.9999999854104605
900.0473433945986 0.9999999854104517
900.0482434423918 0.9999999854104455
900.0491434910853 0.9999999854104422
900.0500435406788 0.999999985410442
900.0509435911723 0.9999999854104448
900.051843642566 0.9999999854104501
900.0527436948595 0.9999999854104568
900.0536437480532 0.9999999854104631
900.0545438021469 0.9999999854104674
900.0554438571407 0.9999999854104674
900.0563439130347 0.9999999854104618
900.0572439698285 0.9999999854104505
900.0581440275225 0.999999985410435
900.0590440861165 0.9999999854104181
900.0599441456106 0.9999999854104026
900.0608442060047 0.999999985410391
900.0617442672989 0.9999999854103835
900.0626443294932 0.9999999854103796
900.0635443925875 0.9999999854103772
900.064444456582 0.9999999854103743
900.0653445214763 0.9999999854103702
900.0662445872707 0.9999999854103653
900.0671446539653 0.9999999854103608
900.06804472156 0.9999999854103582
900.0689447900545 0.9999999854103585
900.0698448594495 0.9999999854103617
900.0707449297444 0.9999999854103676
900.0716450009393 0.9999999854103755
900.0725450730342 0.9999999854103856
900.0734451460294 0.999999985410398
900.0743452199245 0.9999999854104128
900.0752452947198 0.9999999854104296
900.0761453704149 0.9999999854104477
900.0770454470104 0.9999999854104643
900.0779455245058 0.9999999854104771
900.0788456029013 0.999999985410483
900.0797456821969 0.99999998541048
900.0806457623926 0.9999999854104683
900.0815458434884 0.99999998541045
900.0824459254843 0.9999999854104279
900.0833460083802 0.999999985410405
900.0842460921762 0.9999999854103829
900.0851461768722 0.999999985410363
900.0860462624685 0.999999985410346
900.0869463489646 0.9999999854103322
900.087846436361 0.9999999854103223
900.0887465246574 0.999999985410316
900.0896466138541 0.9999999854103122
900.0905467039507 0.9999999854103099
900.0914467949473 0.9999999854103079
900.0923468868441 0.9999999854103052
900.093246979641 0.999999985410301
900.0941470733379 0.9999999854102948
900.095047167935 0.9999999854102863
900.0959472634321 0.9999999854102763
900.0968473598296 0.9999999854102666
900.0977474571268 0.9999999854102597
900.0986475553243 0.9999999854102585
900.0995476544218 0.9999999854102641
900.1004477544196 0.9999999854102759
900.1013478553174 0.9999999854102907
900.1022479571152 0.999999985410304
900.1031480598132 0.9999999854103124
900.1040481634111 0.9999999854103144
900.1049482679095 0.9999999854103104
900.1058483733077 0.9999999854103024
900.1067484796062 0.9999999854102921
900.1076485868047 0.9999999854102811
900.1085486949032 0.9999999854102705
900.1094488039018 0.9999999854102603
900.1103489138007 0.9999999854102509
900.1112490245996 0.9999999854102418
900.1121491362986 0.9999999854102323
900.1130492488979 0.9999999854102215
900.1139493623971 0.9999999854102082
900.1148494767965 0.9999999854101915
900.115749592096 0.9999999854101713
900.1166497082957 0.9999999854101485
900.1175498253954 0.9999999854101238
900.1184499433953 0.9999999854100992
900.1193500622951 0.9999999854100758
900.1202501820952 0.9999999854100555
900.1211503027954 0.9999999854100395
900.1220504243958 0.9999999854100299
900.1229505468962 0.999999985410027
900.1238506702967 0.9999999854100307
900.1247507945975 0.9999999854100393
900.1256509197983 0.9999999854100509
900.1265510458993 0.9999999854100622
900.1274511729004 0.9999999854100711
900.1283513008017 0.9999999854100758
900.129251429603 0.9999999854100758
900.1301515593042 0.9999999854100721
900.1310516899059 0.9999999854100667
900.1319518214076 0.9999999854100627
900.1328519538096 0.9999999854100624
900.1337520871116 0.9999999854100667
900.1346522213137 0.9999999854100753
900.1355523564158 0.9999999854100865
900.1364524924182 0.9999999854100985
900.1373526293208 0.9999999854101096
900.1382527671235 0.9999999854101177
900.1391529058263 0.9999999854101214
900.1400530454292 0.9999999854101187
900.1409531859323 0.9999999854101095
900.1418533273356 0.9999999854100947
900.1427534696388 0.9999999854100764
900.1436536128424 0.9999999854100577
900.144553756946 0.9999999854100414
900.1454539019498 0.9999999854100285
900.1463540478538 0.9999999854100206
900.1472541946582 0.9999999854100177
900.1481543423622 0.99999998541002
900.1490544909666 0.9999999854100272
900.149954640471 0.9999999854100383
900.1508547908757 0.9999999854100514
900.1517549421804 0.9999999854100647
900.1526550943853 0.9999999854100768
900.1535552474907 0.9999999854100863
900.1544554014959 0.9999999854100926
900.1553555564013 0.9999999854100962
900.156255712207 0.9999999854100982
900.1571558689127 0.9999999854101003
900.1580560265187 0.9999999854101038
900.1589561850247 0.9999999854101097
900.159856344431 0.9999999854101171
900.1607565047374 0.9999999854101248
900.161656665944 0.9999999854101309
900.1625568280508 0.9999999854101341
900.1634569910575 0.9999999854101344
900.1643571549646 0.9999999854101317
900.1652573197717 0.9999999854101274
900.166157485479 0.9999999854101227
900.1670576520864 0.9999999854101185
900.1679578195943 0.9999999854101158
900.1688579880022 0.9999999854101147
900.1697581573101 0.9999999854101149
900.1706583275183 0.9999999854101155
900.1715584986268 0.9999999854101153
900.1724586706354 0.9999999854101135
900.1733588435441 0.9999999854101094
900.1742590173529 0.999999985410103
900.1751591920622 0.9999999854100939
900.1760593676713 0.9999999854100821
900.1769595441807 0.9999999854100675
900.1778597215903 0.9999999854100512
900.1787598999 0.9999999854100349
900.17966007911 0.999999985410021
900.1805602592201 0.9999999854100134
900.1814604402305 0.9999999854100146
900.182360622141 0.9999999854100244
900.1832608049516 0.9999999854100406
900.1841609886624 0.9999999854100584
900.1850611732734 0.999999985410074
900.1859613587848 0.9999999854100852
900.1868615451962 0.9999999854100916
900.1877617325077 0.9999999854100939
900.1886619207195 0.9999999854100939
900.1895621098315 0.9999999854100924
900.1904622998437 0.9999999854100899
900.1913624907561 0.9999999854100868
900.1922626825685 0.9999999854100835
900.1931628752812 0.9999999854100798
900.1940630688943 0.9999999854100761
900.1949632634075 0.9999999854100724
900.1958634588207 0.9999999854100694
900.1967636551343 0.9999999854100676
900.1976638523481 0.9999999854100675
900.1985640504619 0.9999999854100695
900.199464249476 0.9999999854100735
900.2003644493906 0.9999999854100794
900.2012646502048 0.9999999854100865
900.2021648519196 0.9999999854100946
900.2030650545345 0.9999999854101034
900.2039652580496 0.9999999854101124
900.2048654624649 0.9999999854101216
900.2057656677805 0.9999999854101312
900.206665873996 0.999999985410141
900.2075660811121 0.9999999854101512
900.2084662891282 0.9999999854101616
900.2093664980446 0.9999999854101714
900.2102667078611 0.9999999854101798
900.211166918578 0.9999999854101859
900.2120671301949 0.9999999854101894
900.2129673427122 0.9999999854101906
900.2138675561295 0.9999999854101903
900.2147677704475 0.9999999854101889
900.2156679856652 0.9999999854101865
900.2165682017832 0.9999999854101829
900.2174684188016 0.9999999854101774
900.2183686367199 0.9999999854101698
900.2192688555386 0.9999999854101604
900.2201690752576 0.9999999854101507
900.2210692958768 0.9999999854101407
900.2219695173961 0.999999985410131
900.2228697398157 0.9999999854101217
900.2237699631354 0.9999999854101121
900.2246701873555 0.9999999854101026
900.2255704124758 0.9999999854100929
900.2264706384963 0.9999999854100833
900.2273708654169 0.9999999854100736
900.2282710932378 0.9999999854100647
900.229171321959 0.9999999854100572
900.2300715515805 0.9999999854100509
900.2309717821018 0.9999999854100455
900.2318720135238 0.9999999854100403
900.2327722458459 0.9999999854100344
900.2336724790683 0.9999999854100272
900.2345727131908 0.9999999854100183
900.2354729482137 0.9999999854100086
900.2363731841367 0.9999999854099987
900.2372734209599 0.9999999854099899
900.2381736586835 0.9999999854099832
900.2390738973071 0.9999999854099789
900.2399741368312 0.9999999854099764
900.2408743772554 0.9999999854099741
900.2417746185798 0.9999999854099707
900.2426748608045 0.9999999854099654
900.2435751039295 0.9999999854099578
900.2444753479547 0.999999985409949
900.2453755928801 0.99999998540994
900.2462758387059 0.9999999854099321
900.2471760854318 0.9999999854099264
900.2480763330581 0.9999999854099236
900.2489765815844 0.9999999854099242
900.2498768310113 0.9999999854099281
900.250777081338 0.9999999854099356
900.2516773325652 0.9999999854099468
900.2525775846927 0.9999999854099617
900.2534778377203 0.9999999854099798
900.2543780916483 0.9999999854099995
900.2552783464765 0.9999999854100187
900.2561786022051 0.9999999854100347
900.2570788588337 0.999999985410045
900.2579791163627 0.9999999854100492
900.2588793747918 0.9999999854100478
900.2597796341213 0.9999999854100422
900.260679894351 0.9999999854100345
900.261580155481 0.9999999854100265
900.2624804175114 0.9999999854100193
900.2633806804417 0.9999999854100129
900.2642809442725 0.999999985410007
900.2651812090035 0.9999999854100011
900.266081474635 0.9999999854099949
900.2669817411663 0.9999999854099887
900.2678820085983 0.999999985409983
900.2687822769304 0.999999985409979
900.2696825461628 0.999999985409977
900.2705828162955 0.999999985409977
900.2714830873283 0.9999999854099788
900.2723833592615 0.9999999854099819
900.273283632095 0.9999999854099855
900.2741839058286 0.9999999854099895
900.2750841804626 0.9999999854099937
900.275984455997 0.9999999854099981
900.2768847324317 0.9999999854100032
900.2777850097663 0.9999999854100091
900.2786852880015 0.9999999854100162
900.2795855671369 0.9999999854100243
900.2804858471725 0.999999985410033
900.2813861281085 0.9999999854100413
900.2822864099447 0.9999999854100481
900.2831866926813 0.9999999854100522
900.2840869763181 0.9999999854100531
900.2849872608552 0.9999999854100512
900.2858875462927 0.9999999854100474
900.2867878326304 0.9999999854100432
900.2876881198681 0.99999998541004
900.2885884080065 0.9999999854100385
900.2894886970449 0.9999999854100392
900.2903889869838 0.9999999854100414
900.2912892778226 0.9999999854100439
900.292189569562 0.9999999854100451
900.2930898622019 0.9999999854100443
900.2939901557417 0.9999999854100414
900.2948904501819 0.9999999854100368
900.2957907455225 0.9999999854100305
900.2966910417633 0.9999999854100231
900.2975913389042 0.9999999854100141
900.2984916369458 0.9999999854100037
900.2993919358875 0.9999999854099928
900.3002922357296 0.9999999854099827
900.3011925364718 0.9999999854099751
900.3020928381144 0.9999999854099718
900.3029931406575 0.999999985409973
900.3038934441007 0.9999999854099784
900.3047937484444 0.9999999854099862
900.3056940536881 0.9999999854099944
900.3065943598324 0.9999999854100008
900.3074946668769 0.9999999854100039
900.3083949748217 0.9999999854100031
900.309295283667 0.9999999854099986
900.3101955934121 0.9999999854099915
900.3110959040579 0.9999999854099836
900.3119962156038 0.9999999854099761
900.3128965280501 0.9999999854099701
900.3137968413969 0.9999999854099654
900.3146971556439 0.9999999854099614
900.3155974707911 0.9999999854099573
900.3164977868386 0.9999999854099527
900.3173981037866 0.9999999854099477
900.3182984216348 0.9999999854099422
900.3191987403833 0.9999999854099371
900.3200990600324 0.9999999854099332
900.3209993805816 0.9999999854099317
900.321899702031 0.9999999854099337
900.3228000243807 0.9999999854099393
900.323700347631 0.9999999854099473
900.3246006717815 0.999999985409956
900.3255009968323 0.9999999854099628
900.3264013227833 0.9999999854099656
900.3273016496348 0.9999999854099628
900.3282019773867 0.9999999854099535
900.3291023060387 0.9999999854099384
900.3300026355911 0.9999999854099186
900.3309029660439 0.9999999854098959
900.331803297397 0.9999999854098726
900.3327036296505 0.9999999854098508
900.3336039628042 0.9999999854098333
900.3345042968583 0.9999999854098215
900.3354046318127 0.9999999854098165
900.3363049676675 0.9999999854098179
900.3372053044228 0.9999999854098245
900.3381056420781 0.9999999854098343
900.3390059806339 0.9999999854098461
900.33990632009 0.9999999854098588
900.3408066604466 0.9999999854098709
900.3417070017032 0.9999999854098823
900.3426073438604 0.9999999854098924
900.343507686918 0.9999999854099009
900.3444080308757 0.9999999854099064
900.3453083757339 0.9999999854099078
900.3462087214925 0.9999999854099049
900.3471090681511 0.9999999854098984
900.3480094157104 0.9999999854098904
900.34890976417 0.9999999854098826
900.3498101135299 0.9999999854098754
900.3507104637902 0.999999985409869
900.3516108149508 0.9999999854098626
900.3525111670116 0.9999999854098556
900.353411519973 0.9999999854098484
900.3543118738346 0.9999999854098419
900.3552122285967 0.9999999854098367
900.3561125842591 0.9999999854098326
900.3570129408217 0.9999999854098295
900.3579132982849 0.999999985409827
900.3588136566484 0.9999999854098249
900.3597140159121 0.9999999854098235
900.3606143760762 0.9999999854098223
900.3615147371407 0.9999999854098213
900.3624150991056 0.99999998540982
900.3633154619708 0.9999999854098179
900.3642158257364 0.9999999854098148
900.3651161904023 0.9999999854098107
900.3660165559686 0.9999999854098062
900.3669169224354 0.9999999854098011
900.3678172898025 0.9999999854097961
900.3687176580698 0.9999999854097912
900.3696180272376 0.9999999854097865
900.370518397306 0.999999985409783
900.3714187682745 0.9999999854097811
900.3723191401434 0.9999999854097819
900.3732195129127 0.9999999854097859
900.3741198865823 0.9999999854097932
900.3750202611524 0.9999999854098034
900.3759206366227 0.9999999854098146
900.3768210129937 0.9999999854098256
900.3777213902647 0.9999999854098349
900.3786217684362 0.9999999854098421
900.3795221475082 0.9999999854098475
900.3804225274805 0.999999985409852
900.3813229083532 0.999999985409856
900.3822232901261 0.9999999854098606
900.3831236727998 0.9999999854098658
900.3840240563736 0.9999999854098717
900.3849244408478 0.9999999854098777
900.3858248262225 0.9999999854098832
900.3867252124975 0.999999985409887
900.3876255996728 0.9999999854098881
900.3885259877486 0.9999999854098861
900.3894263767248 0.9999999854098811
900.3903267666016 0.9999999854098734
900.3912271573782 0.9999999854098643
900.3921275490555 0.9999999854098547
900.3930279416334 0.9999999854098456
900.3939283351115 0.9999999854098377
900.3948287294899 0.9999999854098318
900.3957291247688 0.9999999854098278
900.3966295209481 0.9999999854098255
900.3975299180277 0.9999999854098242
900.3984303160078 0.9999999854098232
900.3993307148883 0.9999999854098219
900.4002311146692 0.9999999854098204
900.4011315153505 0.9999999854098185
900.4020319169321 0.9999999854098162
900.402932319414 0.999999985409814
900.4038327227967 0.9999999854098123
900.4047331270797 0.9999999854098116
900.405633532263 0.999999985409812
900.4065339383466 0.9999999854098138
900.4074343453307 0.9999999854098166
900.4083347532152 0.9999999854098199
900.4092351620001 0.9999999854098226
900.4101355716855 0.9999999854098234
900.4110359822713 0.9999999854098215
900.4119363937574 0.9999999854098168
900.4128368061439 0.9999999854098107
900.4137372194309 0.9999999854098048
900.4146376336182 0.9999999854098007
900.4155380487061 0.9999999854097985
900.4164384646944 0.9999999854097977
900.4173388815831 0.9999999854097972
900.4182392993721 0.9999999854097954
900.4191397180616 0.9999999854097913
900.4200401376515 0.9999999854097847
900.4209405581418 0.999999985409776
900.4218409795324 0.9999999854097662
900.4227414018235 0.9999999854097565
900.423641825015 0.9999999854097479
900.424542249107 0.9999999854097409
900.4254426740995 0.9999999854097364
900.4263430999921 0.9999999854097349
900.4272435267856 0.9999999854097367
900.4281439544791 0.9999999854097414
900.4290443830733 0.999999985409748
900.4299448125679 0.9999999854097545
900.4308452429628 0.9999999854097593
900.4317456742582 0.9999999854097619
900.4326461064541 0.9999999854097619
900.4335465395504 0.9999999854097606
900.4344469735471 0.9999999854097589
900.4353474084443 0.9999999854097573
900.4362478442418 0.9999999854097561
900.4371482809398 0.9999999854097552
900.4380487185383 0.9999999854097548
900.4389491570372 0.9999999854097544
900.4398495964364 0.9999999854097545
900.4407500367362 0.9999999854097552
900.4416504779364 0.9999999854097563
900.4425509200371 0.9999999854097579
900.4434513630382 0.9999999854097593
900.4443518069397 0.9999999854097601
900.4452522517419 0.9999999854097595
900.4461526974443 0.9999999854097571
900.4470531440471 0.9999999854097527
900.4479535915502 0.9999999854097466
900.448854039954 0.9999999854097388
900.4497544892585 0.99999998540973
900.4506549394631 0.9999999854097207
900.4515553905683 0.9999999854097107
900.4524558425738 0.9999999854097005
900.4533562954798 0.9999999854096906
900.4542567492863 0.9999999854096823
900.4551572039933 0.9999999854096767
900.4560576596007 0.9999999854096747
900.4569581161086 0.9999999854096763
900.4578585735169 0.9999999854096808
900.4587590318256 0.9999999854096874
900.4596594910348 0.9999999854096948
900.4605599511445 0.9999999854097023
900.4614604121547 0.9999999854097088
900.4623608740653 0.9999999854097139
900.4632613368763 0.9999999854097172
900.4641618005877 0.9999999854097188
900.4650622651999 0.999999985409719
900.4659627307124 0.9999999854097182
900.4668631971253 0.9999999854097164
900.4677636644387 0.9999999854097132
900.4686641326526 0.9999999854097081
900.4695646017668 0.9999999854097009
900.4704650717817 0.9999999854096916
900.4713655426972 0.9999999854096807
900.4722660145127 0.9999999854096695
900.473166487229 0.999999985409659
900.4740669608458 0.9999999854096501
900.4749674353628 0.9999999854096436
900.4758679107805 0.9999999854096394
900.4767683870987 0.9999999854096365
900.4776688643173 0.999999985409634
900.4785693424363 0.9999999854096304
900.479469821456 0.9999999854096249
900.4803703013758 0.9999999854096173
900.4812707821965 0.9999999854096079
900.4821712639174 0.9999999854095968
900.4830717465388 0.9999999854095841
900.4839722300608 0.9999999854095699
900.4848727144832 0.9999999854095538
900.4857731998062 0.9999999854095365
