Atmospheric Species: CH4_CO_CO2_H2O_NH3
Metallicity: 10000
C/O_Ratio: 0.5
Wavelength[nm] Flux_variation
899.9996421494948 0.9999995212975449
900.0005421495869 0.9999996608196541
900.001442150579 0.9999997000475761
900.0023421524711 0.9999996623338506
900.0032421552633 0.9999994810296187
900.0041421589555 0.9999992527153382
900.0050421635475 0.999999000107858
900.0059421690396 0.9999987299232539
900.0068421754318 0.9999984678458522
900.0077421827239 0.9999982575227865
900.0086421909161 0.9999981732450767
900.0095422000082 0.9999982989578419
900.0104422100004 0.9999986195866806
900.0113422208927 0.9999990052457235
900.0122422326849 0.999999326159527
900.013142245377 0.9999995341622141
900.0140422589691 0.9999996393473556
900.0149422734613 0.9999996687516053
900.0158422888536 0.999999646544844
900.0167423051458 0.9999995873203139
900.017642322338 0.999999492282359
900.0185423404303 0.9999993458139502
900.0194423594227 0.9999991157253986
900.020342379315 0.999998767872775
900.0212424001073 0.9999983139323294
900.0221424217997 0.9999978806097428
900.0230424443921 0.9999976852623975
900.0239424678846 0.9999978411438929
900.024842492277 0.9999982238274934
900.0257425175695 0.9999986064043512
900.0266425437621 0.9999988460077958
900.0275425708543 0.9999989034143805
900.028442598847 0.9999987868963435
900.0293426277395 0.9999985445232296
900.0302426575322 0.9999983006185453
900.0311426882248 0.9999982208064381
900.0320427198175 0.9999983602433159
900.0329427523099 0.9999986073058996
900.0338427857027 0.9999988212989928
900.0347428199954 0.9999989405086434
900.0356428551884 0.9999989648704234
900.0365428912813 0.9999989071192387
900.0374429282743 0.9999987722278116
900.0383429661671 0.9999985470840546
900.0392430049601 0.9999981970484138
900.0401430446531 0.9999976803296615
900.0410430852461 0.9999970003646859
900.041943126739 0.9999962742882096
900.0428431691322 0.999995621376625
900.0437432124255 0.9999951283927877
900.0446432566187 0.999994836316199
900.0455433017121 0.9999947384151422
900.0464433477051 0.9999949390127204
900.0473433945986 0.9999955021210316
900.0482434423918 0.999996274382454
900.0491434910853 0.9999970174289448
900.0500435406788 0.9999975895691415
900.0509435911723 0.9999979887752155
900.051843642566 0.9999982679475001
900.0527436948595 0.9999984721645052
900.0536437480532 0.9999986243797451
900.0545438021469 0.9999987347933595
900.0554438571407 0.9999988071417926
900.0563439130347 0.9999988439009619
900.0572439698285 0.999998845129048
900.0581440275225 0.9999988085224438
900.0590440861165 0.9999987321740922
900.0599441456106 0.999998619453476
900.0608442060047 0.9999984827408779
900.0617442672989 0.999998342549827
900.0626443294932 0.9999982209813654
900.0635443925875 0.9999981319213189
900.064444456582 0.9999980696737926
900.0653445214763 0.999997962120529
900.0662445872707 0.9999977311593111
900.0671446539653 0.9999974344309983
900.06804472156 0.9999970511539223
900.0689447900545 0.9999966389401432
900.0698448594495 0.9999963619923334
900.0707449297444 0.9999963379457563
900.0716450009393 0.9999964939266188
900.0725450730342 0.9999966356923125
900.0734451460294 0.999996622059969
900.0743452199245 0.999996409487935
900.0752452947198 0.9999960140384835
900.0761453704149 0.9999955151695138
900.0770454470104 0.999995045446912
900.0779455245058 0.9999946840023779
900.0788456029013 0.999994365406801
900.0797456821969 0.9999939846086084
900.0806457623926 0.9999935281214984
900.0815458434884 0.9999930839604418
900.0824459254843 0.9999927660136957
900.0833460083802 0.9999926588615065
900.0842460921762 0.9999927822613622
900.0851461768722 0.9999930870745443
900.0860462624685 0.9999934795110632
900.0869463489646 0.9999938667410867
900.087846436361 0.9999941952291908
900.0887465246574 0.9999944630084473
900.0896466138541 0.9999947094654753
900.0905467039507 0.9999949817144808
900.0914467949473 0.9999953066324627
900.0923468868441 0.9999956772333489
900.093246979641 0.999996060992851
900.0941470733379 0.9999964193208549
900.095047167935 0.9999967233341326
900.0959472634321 0.9999969585940267
900.0968473598296 0.9999971223774348
900.0977474571268 0.9999972202796024
900.0986475553243 0.9999972660628806
900.0995476544218 0.9999972802181855
900.1004477544196 0.9999972895340581
900.1013478553174 0.9999973185084222
900.1022479571152 0.9999973810804583
900.1031480598132 0.9999974754638826
900.1040481634111 0.9999975856380481
900.1049482679095 0.9999976893070682
900.1058483733077 0.9999977676923638
900.1067484796062 0.9999978114984767
900.1076485868047 0.9999978202265143
900.1085486949032 0.999997797246524
900.1094488039018 0.9999977449965062
900.1103489138007 0.9999976624240033
900.1112490245996 0.9999975441027992
900.1121491362986 0.9999973796567228
900.1130492488979 0.9999971475445556
900.1139493623971 0.9999968152289298
900.1148494767965 0.9999963325600119
900.115749592096 0.9999956393944796
900.1166497082957 0.9999946947053124
900.1175498253954 0.999993526208686
900.1184499433953 0.9999922638483327
900.1193500622951 0.9999911090234553
900.1202501820952 0.9999902511211538
900.1211503027954 0.9999898033733128
900.1220504243958 0.9999898083213445
900.1229505468962 0.9999902751679852
900.1238506702967 0.9999911641300917
900.1247507945975 0.9999923154988536
900.1256509197983 0.999993471757802
900.1265510458993 0.9999944097411451
900.1274511729004 0.9999950304642458
900.1283513008017 0.9999953577612297
900.129251429603 0.999995509514688
900.1301515593042 0.9999956152815546
900.1310516899059 0.9999957101487379
900.1319518214076 0.9999957469108005
900.1328519538096 0.9999956945899816
900.1337520871116 0.9999955768673108
900.1346522213137 0.9999954351772169
900.1355523564158 0.9999952946326993
900.1364524924182 0.9999951621352625
900.1373526293208 0.9999950353430112
900.1382527671235 0.9999949281355512
900.1391529058263 0.9999948672434854
900.1400530454292 0.9999948742471435
900.1409531859323 0.9999949611960737
900.1418533273356 0.999995157714034
900.1427534696388 0.9999955063221203
900.1436536128424 0.999995979137461
900.144553756946 0.9999964681742363
900.1454539019498 0.9999968813453205
900.1463540478538 0.999997192056349
900.1472541946582 0.9999974124942177
900.1481543423622 0.9999975637017078
900.1490544909666 0.9999976647100641
900.149954640471 0.99999773003116
900.1508547908757 0.9999977688776456
900.1517549421804 0.999997784917513
900.1526550943853 0.9999977765411732
900.1535552474907 0.9999977374030574
900.1544554014959 0.9999976558918127
900.1553555564013 0.999997513085779
900.156255712207 0.9999972819006663
900.1571558689127 0.9999969385023184
900.1580560265187 0.9999965056769566
900.1589561850247 0.9999961117450951
900.159856344431 0.9999959502375416
900.1607565047374 0.9999960895062036
900.161656665944 0.9999963844608868
900.1625568280508 0.9999966265358594
900.1634569910575 0.9999967024031678
900.1643571549646 0.9999965890477965
900.1652573197717 0.9999962898329725
900.166157485479 0.9999958066183638
900.1670576520864 0.9999951683637353
900.1679578195943 0.9999945151701894
900.1688579880022 0.9999941342450382
900.1697581573101 0.9999942577492144
900.1706583275183 0.9999947985333242
900.1715584986268 0.9999954207783576
900.1724586706354 0.9999958435378143
900.1733588435441 0.9999959735157283
900.1742590173529 0.999995859227635
900.1751591920622 0.9999956367731838
900.1760593676713 0.9999954536390452
900.1769595441807 0.999995403156811
900.1778597215903 0.9999955425355355
900.1787598999 0.9999958547235009
900.17966007911 0.9999961992597007
900.1805602592201 0.9999964254430882
900.1814604402305 0.9999964830880116
900.182360622141 0.9999964091562435
900.1832608049516 0.9999962814385432
900.1841609886624 0.9999961856288364
900.1850611732734 0.9999961861593867
900.1859613587848 0.9999963037443687
900.1868615451962 0.999996511225026
900.1877617325077 0.9999967528964676
900.1886619207195 0.9999969720226163
900.1895621098315 0.9999971350387882
900.1904622998437 0.9999972358832644
900.1913624907561 0.9999972859293327
900.1922626825685 0.9999973008591737
900.1931628752812 0.9999972925999647
900.1940630688943 0.9999972675250802
900.1949632634075 0.9999972282314156
900.1958634588207 0.9999971758817177
900.1967636551343 0.9999971116325581
900.1976638523481 0.9999970369883618
900.1985640504619 0.9999969535231148
900.199464249476 0.9999968623399527
900.2003644493906 0.9999967636506237
900.2012646502048 0.9999966567467603
900.2021648519196 0.9999965403050834
900.2030650545345 0.9999964124269084
900.2039652580496 0.9999962702689423
900.2048654624649 0.9999961095910965
900.2057656677805 0.9999959241123096
900.206665873996 0.9999957045846664
900.2075660811121 0.9999954369001022
900.2084662891282 0.999995099184311
900.2093664980446 0.9999946591875544
900.2102667078611 0.9999940752497888
900.211166918578 0.9999933060016607
900.2120671301949 0.9999923352480177
900.2129673427122 0.9999912023801552
900.2138675561295 0.999990026949115
900.2147677704475 0.9999890019859838
900.2156679856652 0.9999883200943991
900.2165682017832 0.9999880531370651
900.2174684188016 0.9999881256854857
900.2183686367199 0.9999884177828211
900.2192688555386 0.9999888471174345
900.2201690752576 0.9999893676248197
900.2210692958768 0.9999899465348981
900.2219695173961 0.9999905467740707
900.2228697398157 0.9999911197961299
900.2237699631354 0.9999916151180573
900.2246701873555 0.9999919966199109
900.2255704124758 0.9999922458958228
900.2264706384963 0.9999923479362965
900.2273708654169 0.9999922742159756
900.2282710932378 0.9999919887296747
900.229171321959 0.9999915071024353
900.2300715515805 0.9999909832393797
900.2309717821018 0.9999906521319363
900.2318720135238 0.9999905744293945
900.2327722458459 0.9999905332376585
900.2336724790683 0.9999902682084886
900.2345727131908 0.9999896903643344
900.2354729482137 0.9999888587178684
900.2363731841367 0.9999878915779487
900.2372734209599 0.9999869280701121
900.2381736586835 0.9999861116287622
900.2390738973071 0.9999855648471239
900.2399741368312 0.9999853638524752
900.2408743772554 0.9999855316165142
900.2417746185798 0.9999860405270012
900.2426748608045 0.9999868131641012
900.2435751039295 0.9999877302167799
900.2444753479547 0.9999886554490532
900.2453755928801 0.9999894640854907
900.2462758387059 0.9999900668030426
900.2471760854318 0.9999904263150456
900.2480763330581 0.999990556535314
900.2489765815844 0.99999050102329
900.2498768310113 0.9999903064642646
900.250777081338 0.9999900154097362
900.2516773325652 0.999989680750268
900.2525775846927 0.9999893818813665
900.2534778377203 0.9999892133977044
900.2543780916483 0.9999892479613178
900.2552783464765 0.9999895013585375
900.2561786022051 0.9999899230949236
900.2570788588337 0.9999904169368333
900.2579791163627 0.9999908790553299
900.2588793747918 0.9999912317017475
900.2597796341213 0.9999914335329867
900.260679894351 0.9999914743520117
900.261580155481 0.9999913623127874
900.2624804175114 0.9999911177662392
900.2633806804417 0.9999907706623727
900.2642809442725 0.999990357149902
900.2651812090035 0.9999899093564626
900.266081474635 0.9999894391650831
900.2669817411663 0.9999889311295425
900.2678820085983 0.9999883514477332
900.2687822769304 0.999987672356702
900.2696825461628 0.9999868905599624
900.2705828162955 0.9999860228970766
900.2714830873283 0.9999850935192137
900.2723833592615 0.9999841499813581
900.273283632095 0.9999832886780787
900.2741839058286 0.9999826299691004
900.2750841804626 0.9999822662388981
900.275984455997 0.9999822442305861
900.2768847324317 0.9999825653971464
900.2777850097663 0.9999831896365677
900.2786852880015 0.9999840368000796
900.2795855671369 0.9999849969159609
900.2804858471725 0.9999859805255212
900.2813861281085 0.9999869519764292
900.2822864099447 0.9999879006416169
900.2831866926813 0.9999888063937011
900.2840869763181 0.9999896418770625
900.2849872608552 0.999990387899758
900.2858875462927 0.9999910387445164
900.2867878326304 0.9999915986315402
900.2876881198681 0.9999920765703264
900.2885884080065 0.9999924828128717
900.2894886970449 0.9999928272245768
900.2903889869838 0.9999931183013563
900.2912892778226 0.9999933620313547
900.292189569562 0.9999935621329094
900.2930898622019 0.9999937192947832
900.2939901557417 0.9999938314434639
900.2948904501819 0.9999938936196959
900.2957907455225 0.9999938970474455
900.2966910417633 0.999993828366123
900.2975913389042 0.9999936738617373
900.2984916369458 0.9999934443142783
900.2993919358875 0.9999932171681507
900.3002922357296 0.9999931154948718
900.3011925364718 0.9999931786444504
900.3020928381144 0.9999933045735468
900.3029931406575 0.9999933712375402
900.3038934441007 0.9999933453951682
900.3047937484444 0.9999932699193592
900.3056940536881 0.9999932099743626
900.3065943598324 0.9999932161043059
900.3074946668769 0.999993300017259
900.3083949748217 0.9999934317874811
900.309295283667 0.9999935561095922
900.3101955934121 0.9999936154269417
900.3110959040579 0.9999935648727576
900.3119962156038 0.9999933739073446
900.3128965280501 0.9999930211144539
900.3137968413969 0.9999924913849376
900.3146971556439 0.9999917807205497
900.3155974707911 0.9999909081948635
900.3164977868386 0.999989930112637
900.3173981037866 0.9999889486272024
900.3182984216348 0.9999881027409394
900.3191987403833 0.9999875350981696
900.3200990600324 0.9999873491135339
900.3209993805816 0.9999875822853037
900.321899702031 0.9999881989377657
900.3228000243807 0.9999890963651501
900.323700347631 0.9999901330034316
900.3246006717815 0.9999911750968806
900.3255009968323 0.9999921294884175
900.3264013227833 0.9999929478540672
900.3273016496348 0.9999936151875752
900.3282019773867 0.9999941360231072
900.3291023060387 0.9999945256117229
900.3300026355911 0.9999947981807253
900.3309029660439 0.9999949634802442
900.331803297397 0.9999950232281217
900.3327036296505 0.9999949701925571
900.3336039628042 0.9999947899292454
900.3345042968583 0.9999944673642445
900.3354046318127 0.9999940011194517
900.3363049676675 0.9999934235356428
900.3372053044228 0.9999928145759273
900.3381056420781 0.9999922919695843
900.3390059806339 0.9999919762170705
900.33990632009 0.9999919517120465
900.3408066604466 0.9999922402603377
900.3417070017032 0.9999927974968044
900.3426073438604 0.9999935228296527
900.343507686918 0.9999942899627086
900.3444080308757 0.9999949863565303
900.3453083757339 0.9999955465414592
900.3462087214925 0.9999959539194166
900.3471090681511 0.9999962224313792
900.3480094157104 0.9999963724866958
900.34890976417 0.9999964155507981
900.3498101135299 0.9999963495211672
900.3507104637902 0.9999961671674993
900.3516108149508 0.9999958899538489
900.3525111670116 0.9999956214183405
900.353411519973 0.9999955283201875
900.3543118738346 0.9999956869447053
900.3552122285967 0.9999959901638199
900.3561125842591 0.9999962677421609
900.3570129408217 0.999996425060769
900.3579132982849 0.9999964373357281
900.3588136566484 0.9999963033749656
900.3597140159121 0.9999960317725666
900.3606143760762 0.9999956754775222
900.3615147371407 0.9999953721240953
900.3624150991056 0.9999952718531139
900.3633154619708 0.9999953783845246
900.3642158257364 0.9999955525126716
900.3651161904023 0.999995669171561
900.3660165559686 0.999995677936112
900.3669169224354 0.9999955611582572
900.3678172898025 0.9999952998032181
900.3687176580698 0.99999487893602
900.3696180272376 0.9999943200796418
900.370518397306 0.999993717345812
900.3714187682745 0.9999932075475111
900.3723191401434 0.9999928725028538
900.3732195129127 0.9999927202550866
900.3741198865823 0.9999927549951095
900.3750202611524 0.9999929876926016
900.3759206366227 0.9999933940519388
900.3768210129937 0.9999939039387885
900.3777213902647 0.9999944317503743
900.3786217684362 0.9999949088574281
900.3795221475082 0.9999952990891569
900.3804225274805 0.9999956000411285
900.3813229083532 0.9999958380685495
900.3822232901261 0.9999960569651747
900.3831236727998 0.9999962993285983
900.3840240563736 0.9999965874980294
900.3849244408478 0.9999969148639927
900.3858248262225 0.9999972525591598
900.3867252124975 0.9999975662236231
900.3876255996728 0.9999978316415353
900.3885259877486 0.9999980408877938
900.3894263767248 0.9999981996593105
900.3903267666016 0.9999983163951027
900.3912271573782 0.9999984017158656
900.3921275490555 0.999998462575978
900.3930279416334 0.9999985029031008
900.3939283351115 0.9999985239987256
900.3948287294899 0.9999985251748679
900.3957291247688 0.999998505704879
900.3966295209481 0.99999846889329
900.3975299180277 0.9999984260858349
900.3984303160078 0.9999983959950567
900.3993307148883 0.9999983971617119
900.4002311146692 0.9999984377766117
900.4011315153505 0.9999985107211792
900.4020319169321 0.9999985978768997
900.402932319414 0.9999986798793651
900.4038327227967 0.9999987440182926
900.4047331270797 0.9999987860754284
900.405633532263 0.9999988074458996
900.4065339383466 0.9999988113448804
900.4074343453307 0.9999988003195895
900.4083347532152 0.9999987751185155
900.4092351620001 0.9999987341362265
900.4101355716855 0.9999986723978885
900.4110359822713 0.9999985799122275
900.4119363937574 0.9999984390677431
900.4128368061439 0.9999982216801337
900.4137372194309 0.9999978896579287
900.4146376336182 0.9999974125395767
900.4155380487061 0.9999968252119441
900.4164384646944 0.9999963034903849
900.4173388815831 0.9999961087834692
900.4182392993721 0.9999963430098184
900.4191397180616 0.999996826749288
900.4200401376515 0.9999972960163299
900.4209405581418 0.9999976119952615
900.4218409795324 0.9999977586429554
900.4227414018235 0.9999977574367169
900.423641825015 0.9999976183161843
900.424542249107 0.9999973290236464
900.4254426740995 0.999996867549901
900.4263430999921 0.9999962417976399
900.4272435267856 0.9999955537655765
900.4281439544791 0.999995009396223
900.4290443830733 0.9999947776377903
900.4299448125679 0.9999948264067904
900.4308452429628 0.999994982620291
900.4317456742582 0.9999951547638138
900.4326461064541 0.9999953984102355
900.4335465395504 0.9999957680795413
900.4344469735471 0.9999961962760607
900.4353474084443 0.9999965478923953
900.4362478442418 0.9999967488613725
900.4371482809398 0.999996818149638
900.4380487185383 0.999996815257002
900.4389491570372 0.9999967906309533
900.4398495964364 0.9999967598162297
900.4407500367362 0.9999966956783541
900.4416504779364 0.9999965429013511
900.4425509200371 0.9999962694568215
900.4434513630382 0.9999959485269875
900.4443518069397 0.9999957901014649
900.4452522517419 0.9999959797679864
900.4461526974443 0.9999964832506718
900.4470531440471 0.9999970975297353
900.4479535915502 0.9999976520370233
900.448854039954 0.999998085608774
900.4497544892585 0.9999984026185318
900.4506549394631 0.9999986270603515
900.4515553905683 0.9999987844919054
900.4524558425738 0.9999988931104459
900.4533562954798 0.9999989676276771
900.4542567492863 0.9999990169073273
900.4551572039933 0.9999990459458821
900.4560576596007 0.9999990567656857
900.4569581161086 0.999999048454723
900.4578585735169 0.9999990164657968
900.4587590318256 0.9999989515767831
900.4596594910348 0.999998838240929
900.4605599511445 0.9999986600471602
900.4614604121547 0.9999984023302934
900.4623608740653 0.9999980896338737
900.4632613368763 0.9999978167237303
900.4641618005877 0.9999977079296264
900.4650622651999 0.9999977958256752
900.4659627307124 0.9999979956876588
900.4668631971253 0.9999982106877277
900.4677636644387 0.999998393760162
900.4686641326526 0.9999985279016066
900.4695646017668 0.9999986003379239
900.4704650717817 0.9999985927597617
900.4713655426972 0.9999984775352392
900.4722660145127 0.9999982194784722
900.473166487229 0.9999977933442361
900.4740669608458 0.9999972108304865
900.4749674353628 0.9999965502904123
900.4758679107805 0.9999959499060632
900.4767683870987 0.9999955631599426
900.4776688643173 0.9999954929400006
900.4785693424363 0.9999957560653127
900.479469821456 0.9999962766588506
900.4803703013758 0.9999969138373338
900.4812707821965 0.9999975167910721
900.4821712639174 0.9999979819826922
900.4830717465388 0.9999982766952848
900.4839722300608 0.9999984228955795
900.4848727144832 0.9999984669218289
