Atmospheric Species: CO
Metallicity: 10000
C/O_Ratio: 0.5
Wavelength[nm] Flux_variation
999.9990867268679 0.9999999855890281
1000.0000867264545 0.9999999855890342
1000.0010867270413 0.9999999855890402
1000.0020867286277 0.9999999855890463
1000.0030867312147 0.9999999855890523
1000.0040867348013 0.9999999855890583
1000.0050867393879 0.9999999855890644
1000.0060867449746 0.9999999855890706
1000.0070867515615 0.9999999855890767
1000.0080867591481 0.9999999855890827
1000.0090867677349 0.9999999855890888
1000.0100867773216 0.9999999855890949
1000.0110867879083 0.9999999855891009
1000.0120867994951 0.9999999855891069
1000.0130868120818 0.999999985589113
1000.0140868256685 0.9999999855891192
1000.0150868402555 0.9999999855891252
1000.0160868558423 0.9999999855891312
1000.0170868724291 0.9999999855891373
1000.0180868900158 0.9999999855891433
1000.0190869086025 0.9999999855891494
1000.0200869281896 0.9999999855891555
1000.0210869487765 0.9999999855891616
1000.0220869703634 0.9999999855891676
1000.0230869929503 0.9999999855891736
1000.0240870165372 0.9999999855891798
1000.0250870411243 0.9999999855891858
1000.0260870667114 0.9999999855891918
1000.0270870932983 0.9999999855891979
1000.0280871208853 0.9999999855892039
1000.0290871494724 0.99999998558921
1000.0300871790596 0.9999999855892161
1000.0310872096469 0.9999999855892222
1000.0320872412341 0.9999999855892282
1000.0330872738213 0.9999999855892342
1000.0340873074085 0.9999999855892403
1000.035087341996 0.9999999855892463
1000.0360873775834 0.9999999855892524
1000.0370874141706 0.9999999855892585
1000.0380874517581 0.9999999855892646
1000.0390874903455 0.9999999855892706
1000.040087529933 0.9999999855892766
1000.0410875705202 0.9999999855892827
1000.0420876121078 0.9999999855892888
1000.0430876546953 0.9999999855892948
1000.0440876982829 0.999999985589301
1000.0450877428707 0.999999985589307
1000.0460877884583 0.9999999855893131
1000.0470878350463 0.9999999855893192
1000.0480878826341 0.9999999855893252
1000.0490879312221 0.9999999855893312
1000.0500879808101 0.9999999855893373
1000.0510880313981 0.9999999855893433
1000.052088082986 0.9999999855893495
1000.0530881355742 0.9999999855893555
1000.0540881891621 0.9999999855893615
1000.0550882437503 0.9999999855893676
1000.0560882993386 0.9999999855893736
1000.057088355927 0.9999999855893797
1000.0580884135152 0.9999999855893857
1000.0590884721038 0.999999985589392
1000.0600885316923 0.999999985589398
1000.0610885922806 0.9999999855894041
1000.0620886538691 0.9999999855894101
1000.0630887164579 0.9999999855894162
1000.0640887800465 0.9999999855894223
1000.0650888446352 0.9999999855894283
1000.0660889102243 0.9999999855894344
1000.0670889768132 0.9999999855894405
1000.0680890444022 0.9999999855894465
1000.0690891129912 0.9999999855894526
1000.0700891825802 0.9999999855894586
1000.0710892531694 0.9999999855894647
1000.0720893247585 0.9999999855894708
1000.0730893973481 0.9999999855894768
1000.0740894709373 0.9999999855894828
1000.0750895455268 0.999999985589489
1000.0760896211164 0.9999999855894951
1000.077089697706 0.9999999855895011
1000.0780897752954 0.9999999855895071
1000.0790898538854 0.9999999855895132
1000.0800899334753 0.9999999855895192
1000.0810900140654 0.9999999855895253
1000.0820900956553 0.9999999855895315
1000.0830901782452 0.9999999855895375
1000.0840902618355 0.9999999855895436
1000.0850903464259 0.9999999855895496
1000.0860904320161 0.9999999855895556
1000.0870905186066 0.9999999855895617
1000.0880906061968 0.9999999855895677
1000.0890906947876 0.9999999855895738
1000.0900907843783 0.99999998558958
1000.091090874969 0.999999985589586
1000.09209096656 0.9999999855895921
1000.0930910591511 0.9999999855895982
1000.0940911527421 0.9999999855896042
1000.0950912473332 0.9999999855896102
1000.0960913429245 0.9999999855896163
1000.0970914395157 0.9999999855896224
1000.0980915371073 0.9999999855896287
1000.0990916356989 0.9999999855896345
1000.1000917352904 0.9999999855896406
1000.1010918358822 0.9999999855896468
1000.1020919374741 0.9999999855896528
1000.103092040066 0.9999999855896589
1000.104092143658 0.999999985589665
1000.1050922482502 0.9999999855896712
1000.1060923538424 0.9999999855896772
1000.1070924604346 0.9999999855896833
1000.1080925680272 0.9999999855896894
1000.1090926766199 0.9999999855896954
1000.1100927862127 0.9999999855897015
1000.1110928968052 0.9999999855897076
1000.1120930083981 0.9999999855897137
1000.1130931209912 0.9999999855897198
1000.1140932345844 0.9999999855897259
1000.1150933491775 0.999999985589732
1000.1160934647708 0.9999999855897381
1000.1170935813644 0.9999999855897442
1000.1180936989581 0.9999999855897503
1000.1190938175519 0.9999999855897563
1000.1200939371456 0.9999999855897624
1000.1210940577396 0.9999999855897685
1000.1220941793334 0.9999999855897747
1000.1230943019278 0.9999999855897808
1000.1240944255222 0.9999999855897868
1000.1250945501166 0.9999999855897929
1000.1260946757113 0.999999985589799
1000.1270948023059 0.9999999855898051
1000.1280949299006 0.9999999855898113
1000.1290950584957 0.9999999855898173
1000.1300951880909 0.9999999855898234
1000.1310953186861 0.9999999855898295
1000.1320954502813 0.9999999855898356
1000.1330955828766 0.9999999855898417
1000.1340957164724 0.9999999855898477
1000.1350958510682 0.9999999855898538
1000.1360959866639 0.9999999855898599
1000.1370961232601 0.9999999855898661
1000.138096260856 0.9999999855898721
1000.1390963994523 0.9999999855898782
1000.1400965390488 0.9999999855898843
1000.1410966796454 0.9999999855898903
1000.1420968212423 0.9999999855898964
1000.1430969638391 0.9999999855899027
1000.144097107436 0.9999999855899088
1000.1450972520331 0.9999999855899149
1000.1460973976305 0.999999985589921
1000.1470975442279 0.999999985589927
1000.1480976918256 0.9999999855899331
1000.149097840423 0.9999999855899392
1000.1500979900211 0.9999999855899453
1000.151098140619 0.9999999855899515
1000.1520982922174 0.9999999855899575
1000.1530984448154 0.9999999855899636
1000.154098598414 0.9999999855899697
1000.1550987530128 0.9999999855899757
1000.1560989086115 0.9999999855899819
1000.1570990652104 0.9999999855899879
1000.1580992228096 0.999999985589994
1000.1590993814089 0.9999999855900003
1000.1600995410081 0.9999999855900064
1000.1610997016078 0.9999999855900125
1000.1620998632073 0.9999999855900185
1000.1631000258074 0.9999999855900246
1000.1641001894075 0.9999999855900307
1000.1651003540076 0.9999999855900367
1000.1661005196083 0.9999999855900429
1000.1671006862088 0.999999985590049
1000.1681008538095 0.9999999855900551
1000.1691010224106 0.9999999855900611
1000.1701011920115 0.9999999855900672
1000.1711013626126 0.9999999855900733
1000.172101534214 0.9999999855900794
1000.1731017068156 0.9999999855900855
1000.1741018804173 0.9999999855900917
1000.1751020550191 0.9999999855900977
1000.176102230621 0.9999999855901038
1000.1771024072235 0.9999999855901099
1000.178102584826 0.999999985590116
1000.1791027634283 0.9999999855901222
1000.1801029430311 0.9999999855901281
1000.1811031236343 0.9999999855901344
1000.1821033052373 0.9999999855901405
1000.1831034878404 0.9999999855901466
1000.1841036714444 0.9999999855901526
1000.185103856048 0.9999999855901588
1000.186104041652 0.9999999855901648
1000.1871042282562 0.9999999855901709
1000.1881044158606 0.999999985590177
1000.1891046044649 0.9999999855901832
1000.1901047940696 0.9999999855901892
1000.1911049846746 0.9999999855901953
1000.1921051762795 0.9999999855902014
1000.1931053688846 0.9999999855902075
1000.19410556249 0.9999999855902135
1000.1951057570957 0.9999999855902197
1000.1961059527016 0.9999999855902257
1000.1971061493076 0.999999985590232
1000.1981063469138 0.9999999855902381
1000.1991065455202 0.9999999855902441
1000.2001067451266 0.9999999855902502
1000.2011069457335 0.9999999855902564
1000.2021071473406 0.9999999855902625
1000.2031073499479 0.9999999855902686
1000.2041075535553 0.9999999855902748
1000.205107758163 0.9999999855902809
1000.2061079637706 0.999999985590287
1000.2071081703787 0.9999999855902932
1000.2081083779867 0.9999999855902993
1000.2091085865953 0.9999999855903055
1000.2101087962038 0.9999999855903114
1000.2111090068129 0.9999999855903176
1000.2121092184218 0.9999999855903239
1000.2131094310312 0.99999998559033
1000.2141096446406 0.9999999855903361
1000.2151098592504 0.9999999855903422
1000.2161100748604 0.9999999855903483
1000.2171102914705 0.9999999855903544
1000.2181105090809 0.9999999855903605
1000.2191107276915 0.9999999855903667
1000.2201109473023 0.999999985590373
1000.2211111679131 0.999999985590379
1000.2221113895246 0.9999999855903852
1000.2231116121359 0.9999999855903913
1000.2241118357476 0.9999999855903974
1000.2251120603597 0.9999999855904035
1000.2261122859717 0.9999999855904096
1000.2271125125843 0.9999999855904159
1000.2281127401967 0.999999985590422
1000.2291129688095 0.999999985590428
1000.2301131984226 0.9999999855904342
1000.2311134290359 0.9999999855904402
1000.2321136606492 0.9999999855904464
1000.2331138932632 0.9999999855904526
1000.2341141268771 0.9999999855904588
1000.2351143614912 0.9999999855904649
1000.2361145971057 0.999999985590471
1000.2371148337205 0.9999999855904771
1000.2381150713354 0.9999999855904833
1000.2391153099505 0.9999999855904894
1000.240115549566 0.9999999855904955
1000.2411157901815 0.9999999855905015
1000.2421160317974 0.9999999855905078
1000.2431162744135 0.999999985590514
1000.2441165180297 0.9999999855905201
1000.2451167626463 0.9999999855905263
1000.2461170082632 0.9999999855905324
1000.2471172548803 0.9999999855905385
1000.2481175024976 0.9999999855905446
1000.2491177511153 0.9999999855905507
1000.250118000733 0.9999999855905569
1000.2511182513512 0.999999985590563
1000.2521185029693 0.9999999855905692
1000.253118755588 0.9999999855905753
1000.254119009207 0.9999999855905815
1000.255119263826 0.9999999855905876
1000.2561195194453 0.9999999855905937
1000.2571197760649 0.9999999855905999
1000.2581200336847 0.9999999855906061
1000.2591202923049 0.9999999855906121
1000.2601205519254 0.9999999855906182
1000.2611208125461 0.9999999855906243
1000.2621210741669 0.9999999855906305
1000.2631213367881 0.9999999855906366
1000.2641216004095 0.9999999855906427
1000.2651218650311 0.999999985590649
1000.2661221306531 0.9999999855906552
1000.2671223972753 0.9999999855906612
1000.2681226648979 0.9999999855906674
1000.2691229335207 0.9999999855906735
1000.2701232031435 0.9999999855906796
1000.2711234737669 0.9999999855906857
1000.2721237453907 0.9999999855906919
1000.2731240180144 0.999999985590698
1000.2741242916385 0.9999999855907041
1000.2751245662629 0.9999999855907103
1000.2761248418876 0.9999999855907165
1000.2771251185125 0.9999999855907226
1000.2781253961376 0.9999999855907287
1000.2791256747632 0.9999999855907348
1000.2801259543891 0.999999985590741
1000.2811262350151 0.9999999855907471
1000.2821265166416 0.9999999855907533
1000.2831267992681 0.9999999855907594
1000.2841270828949 0.9999999855907655
1000.2851273675221 0.9999999855907716
1000.2861276531496 0.9999999855907779
1000.2871279397773 0.9999999855907841
1000.2881282274054 0.9999999855907902
1000.2891285160338 0.9999999855907963
1000.2901288056626 0.9999999855908024
1000.2911290962913 0.9999999855908085
1000.2921293879206 0.9999999855908147
1000.29312968055 0.9999999855908208
1000.2941299741797 0.9999999855908269
1000.2951302688098 0.9999999855908331
1000.2961305644403 0.9999999855908392
1000.2971308610711 0.9999999855908454
1000.298131158702 0.9999999855908515
1000.299131457333 0.9999999855908576
1000.3001317569648 0.9999999855908638
1000.3011320575966 0.9999999855908699
1000.3021323592287 0.9999999855908761
1000.3031326618612 0.9999999855908823
1000.304132965494 0.9999999855908885
1000.3051332701272 0.9999999855908946
1000.3061335757607 0.9999999855909008
1000.3071338823943 0.999999985590907
1000.3081341900283 0.9999999855909131
1000.3091344986627 0.9999999855909193
1000.3101348082973 0.9999999855909256
1000.3111351189324 0.9999999855909317
1000.3121354305675 0.9999999855909378
1000.3131357432031 0.999999985590944
1000.3141360568391 0.9999999855909503
1000.3151363714751 0.9999999855909564
1000.3161366871118 0.9999999855909625
1000.3171370037486 0.9999999855909687
1000.3181373213856 0.9999999855909749
1000.3191376400231 0.9999999855909811
1000.320137959661 0.9999999855909874
1000.3211382802991 0.9999999855909935
1000.3221386019376 0.9999999855909997
1000.3231389245761 0.9999999855910058
1000.3241392482154 0.999999985591012
1000.3251395728545 0.9999999855910182
1000.3261398984943 0.9999999855910244
1000.3271402251344 0.9999999855910305
1000.3281405527748 0.9999999855910368
1000.3291408814154 0.999999985591043
1000.3301412110563 0.9999999855910491
1000.3311415416975 0.9999999855910553
1000.3321418733395 0.9999999855910614
1000.3331422059815 0.9999999855910676
1000.3341425396235 0.999999985591074
1000.3351428742664 0.99999998559108
1000.3361432099094 0.9999999855910863
1000.3371435465527 0.9999999855910923
1000.3381438841965 0.9999999855910985
1000.3391442228403 0.9999999855911047
1000.3401445624847 0.9999999855911109
1000.3411449031296 0.9999999855911172
1000.3421452447743 0.9999999855911234
1000.3431455874198 0.9999999855911295
1000.3441459310656 0.9999999855911357
1000.3451462757116 0.9999999855911418
1000.3461466213582 0.999999985591148
1000.3471469680048 0.9999999855911541
1000.3481473156519 0.9999999855911604
1000.3491476642994 0.9999999855911665
1000.3501480139473 0.9999999855911728
1000.3511483645954 0.999999985591179
1000.3521487162437 0.9999999855911851
1000.3531490688927 0.9999999855911913
1000.3541494225418 0.9999999855911974
1000.3551497771913 0.9999999855912037
1000.3561501328413 0.99999998559121
1000.3571504894916 0.9999999855912161
1000.3581508471422 0.9999999855912223
1000.3591512057932 0.9999999855912284
1000.3601515654447 0.9999999855912345
1000.3611519260962 0.9999999855912407
1000.3621522877484 0.9999999855912469
1000.3631526504007 0.9999999855912531
1000.3641530140533 0.9999999855912594
1000.3651533787065 0.9999999855912656
1000.3661537443601 0.9999999855912717
1000.3671541110142 0.9999999855912779
1000.3681544786683 0.999999985591284
1000.3691548473229 0.9999999855912902
1000.3701552169779 0.9999999855912965
1000.3711555876331 0.9999999855913027
1000.372155959289 0.9999999855913089
1000.3731563319452 0.999999985591315
1000.3741567056016 0.9999999855913211
1000.3751570802583 0.9999999855913273
1000.3761574559159 0.9999999855913334
1000.3771578325733 0.9999999855913397
1000.3781582102313 0.999999985591346
1000.3791585888897 0.9999999855913521
1000.3801589685486 0.9999999855913583
1000.3811593492076 0.9999999855913644
1000.3821597308672 0.9999999855913706
1000.3831601135271 0.9999999855913768
1000.3841604971875 0.9999999855913829
1000.385160881848 0.9999999855913893
1000.3861612675092 0.9999999855913954
1000.3871616541704 0.9999999855914016
1000.3881620418323 0.9999999855914078
1000.3891624304945 0.999999985591414
1000.3901628201571 0.9999999855914201
1000.39116321082 0.9999999855914262
1000.3921636024834 0.9999999855914324
1000.3931639951471 0.9999999855914388
1000.3941643888114 0.9999999855914449
1000.3951647834758 0.9999999855914511
1000.3961651791407 0.9999999855914573
1000.3971655758062 0.9999999855914634
1000.3981659734719 0.9999999855914696
1000.3991663721378 0.9999999855914757
1000.4001667718045 0.9999999855914821
1000.4011671724716 0.9999999855914883
1000.4021675741387 0.9999999855914945
1000.4031679768065 0.9999999855915007
1000.4041683804746 0.9999999855915069
1000.4051687851431 0.999999985591513
1000.4061691908121 0.9999999855915194
1000.4071695974815 0.9999999855915255
1000.4081700051511 0.9999999855915318
1000.4091704138214 0.9999999855915381
1000.410170823492 0.9999999855915443
1000.4111712341629 0.9999999855915506
1000.4121716458344 0.9999999855915568
1000.4131720585063 0.9999999855915629
1000.4141724721785 0.9999999855915691
1000.4151728868513 0.9999999855915755
1000.4161733025242 0.9999999855915817
1000.4171737191976 0.9999999855915879
1000.4181741368717 0.9999999855915942
1000.4191745555461 0.9999999855916004
1000.4201749752206 0.9999999855916066
1000.4211753958958 0.9999999855916128
1000.4221758175713 0.9999999855916191
1000.4231762402471 0.9999999855916253
1000.4241766639237 0.9999999855916315
1000.4251770886004 0.9999999855916377
1000.4261775142776 0.9999999855916439
1000.4271779409554 0.9999999855916502
1000.4281783686337 0.9999999855916565
1000.4291787973121 0.9999999855916627
1000.4301792269913 0.9999999855916689
1000.4311796576706 0.9999999855916751
1000.4321800893504 0.9999999855916814
1000.4331805220305 0.9999999855916876
1000.4341809557111 0.9999999855916938
1000.4351813903924 0.9999999855917
1000.436181826074 0.9999999855917062
1000.437182262756 0.9999999855917125
1000.4381827004385 0.9999999855917188
1000.4391831391212 0.999999985591725
1000.4401835788046 0.9999999855917312
1000.4411840194883 0.9999999855917374
1000.4421844611727 0.9999999855917436
1000.4431849038573 0.9999999855917499
1000.4441853475425 0.9999999855917561
1000.4451857922281 0.9999999855917624
1000.4461862379142 0.9999999855917686
1000.4471866846006 0.9999999855917748
1000.4481871322876 0.999999985591781
1000.449187580975 0.9999999855917873
1000.4501880306628 0.9999999855917935
1000.4511884813512 0.9999999855917997
1000.4521889330398 0.999999985591806
1000.4531893857289 0.9999999855918122
1000.4541898394186 0.9999999855918185
1000.4551902941087 0.9999999855918247
1000.4561907497991 0.9999999855918309
1000.4571912064902 0.9999999855918371
1000.4581916641815 0.9999999855918433
1000.4591921228734 0.9999999855918495
1000.4601925825657 0.9999999855918559
1000.4611930432583 0.9999999855918621
1000.4621935049518 0.9999999855918683
1000.4631939676453 0.9999999855918745
1000.4641944313394 0.9999999855918809
1000.4651948960341 0.999999985591887
1000.4661953617292 0.9999999855918932
1000.4671958284248 0.9999999855918995
1000.4681962961208 0.9999999855919058
1000.4691967648173 0.9999999855919119
1000.4701972345143 0.9999999855919183
1000.4711977052117 0.9999999855919244
1000.4721981769096 0.9999999855919306
1000.473198649608 0.9999999855919369
1000.474199123307 0.999999985591943
1000.4751995980062 0.9999999855919494
1000.4762000737059 0.9999999855919556
1000.4772005504062 0.9999999855919619
1000.4782010281068 0.999999985591968
1000.4792015068081 0.9999999855919743
1000.4802019865099 0.9999999855919806
1000.4812024672121 0.9999999855919867
1000.4822029489148 0.9999999855919931
1000.4832034316181 0.9999999855919993
1000.4842039153217 0.9999999855920054
1000.4852044000259 0.9999999855920118
1000.4862048857303 0.999999985592018
1000.4872053724354 0.9999999855920242
1000.4882058601407 0.9999999855920304
1000.489206348847 0.9999999855920366
1000.4902068385535 0.9999999855920431
1000.4912073292606 0.9999999855920492
1000.4922078209681 0.9999999855920554
1000.4932083136761 0.9999999855920617
1000.4942088073846 0.9999999855920678
1000.4952093020935 0.999999985592074
1000.496209797803 0.9999999855920804
1000.4972102945131 0.9999999855920866
1000.4982107922236 0.9999999855920928
1000.4992112909346 0.9999999855920991
1000.5002117906462 0.9999999855921053
1000.5012122913581 0.9999999855921116
1000.5022127930706 0.9999999855921178
1000.5032132957836 0.999999985592124
1000.5042137994972 0.9999999855921302
1000.5052143042112 0.9999999855921364
1000.5062148099256 0.9999999855921425
1000.5072153166407 0.9999999855921489
1000.5082158243563 0.999999985592155
1000.5092163330723 0.9999999855921612
1000.5102168427889 0.9999999855921674
1000.5112173535059 0.9999999855921736
1000.5122178652234 0.99999998559218
1000.5132183779415 0.9999999855921861
1000.5142188916603 0.9999999855921923
1000.5152194063793 0.9999999855921985
1000.5162199220989 0.9999999855922047
1000.5172204388191 0.9999999855922108
1000.5182209565398 0.999999985592217
1000.5192214752609 0.9999999855922234
1000.5202219949825 0.9999999855922296
1000.5212225157047 0.9999999855922358
1000.5222230374275 0.999999985592242
1000.5232235601508 0.9999999855922481
1000.5242240838744 0.9999999855922544
1000.5252246085989 0.9999999855922606
