Atmospheric Species: CH4
Metallicity: 10000
C/O_Ratio: 0.5
Wavelength[nm] Flux_variation
999.9990867268679 0.999999985588768
1000.0000867264545 0.9999999855887758
1000.0010867270413 0.9999999855887837
1000.0020867286277 0.9999999855887916
1000.0030867312147 0.9999999855887993
1000.0040867348013 0.9999999855888069
1000.0050867393879 0.999999985588814
1000.0060867449746 0.9999999855888206
1000.0070867515615 0.9999999855888269
1000.0080867591481 0.999999985588833
1000.0090867677349 0.9999999855888388
1000.0100867773216 0.9999999855888447
1000.0110867879083 0.9999999855888506
1000.0120867994951 0.9999999855888565
1000.0130868120818 0.9999999855888626
1000.0140868256685 0.9999999855888686
1000.0150868402555 0.9999999855888747
1000.0160868558423 0.9999999855888809
1000.0170868724291 0.9999999855888873
1000.0180868900158 0.9999999855888937
1000.0190869086025 0.9999999855889002
1000.0200869281896 0.9999999855889068
1000.0210869487765 0.9999999855889132
1000.0220869703634 0.9999999855889197
1000.0230869929503 0.999999985588926
1000.0240870165372 0.9999999855889319
1000.0250870411243 0.9999999855889375
1000.0260870667114 0.9999999855889431
1000.0270870932983 0.9999999855889485
1000.0280871208853 0.999999985588954
1000.0290871494724 0.9999999855889591
1000.0300871790596 0.9999999855889639
1000.0310872096469 0.9999999855889685
1000.0320872412341 0.9999999855889727
1000.0330872738213 0.9999999855889771
1000.0340873074085 0.9999999855889816
1000.035087341996 0.9999999855889865
1000.0360873775834 0.999999985588992
1000.0370874141706 0.999999985588998
1000.0380874517581 0.9999999855890046
1000.0390874903455 0.9999999855890116
1000.040087529933 0.9999999855890189
1000.0410875705202 0.9999999855890265
1000.0420876121078 0.999999985589034
1000.0430876546953 0.9999999855890417
1000.0440876982829 0.9999999855890491
1000.0450877428707 0.9999999855890565
1000.0460877884583 0.9999999855890637
1000.0470878350463 0.9999999855890706
1000.0480878826341 0.9999999855890769
1000.0490879312221 0.9999999855890831
1000.0500879808101 0.999999985589089
1000.0510880313981 0.9999999855890946
1000.052088082986 0.9999999855891002
1000.0530881355742 0.9999999855891057
1000.0540881891621 0.9999999855891114
1000.0550882437503 0.999999985589117
1000.0560882993386 0.9999999855891226
1000.057088355927 0.9999999855891282
1000.0580884135152 0.9999999855891336
1000.0590884721038 0.9999999855891392
1000.0600885316923 0.9999999855891445
1000.0610885922806 0.9999999855891498
1000.0620886538691 0.9999999855891554
1000.0630887164579 0.9999999855891611
1000.0640887800465 0.9999999855891674
1000.0650888446352 0.9999999855891739
1000.0660889102243 0.9999999855891808
1000.0670889768132 0.9999999855891879
1000.0680890444022 0.9999999855891951
1000.0690891129912 0.9999999855892026
1000.0700891825802 0.99999998558921
1000.0710892531694 0.9999999855892171
1000.0720893247585 0.9999999855892243
1000.0730893973481 0.9999999855892312
1000.0740894709373 0.9999999855892379
1000.0750895455268 0.9999999855892442
1000.0760896211164 0.9999999855892506
1000.077089697706 0.9999999855892567
1000.0780897752954 0.999999985589263
1000.0790898538854 0.9999999855892693
1000.0800899334753 0.9999999855892757
1000.0810900140654 0.9999999855892822
1000.0820900956553 0.9999999855892884
1000.0830901782452 0.9999999855892945
1000.0840902618355 0.9999999855893
1000.0850903464259 0.9999999855893054
1000.0860904320161 0.9999999855893104
1000.0870905186066 0.9999999855893151
1000.0880906061968 0.9999999855893199
1000.0890906947876 0.9999999855893249
1000.0900907843783 0.9999999855893301
1000.091090874969 0.9999999855893356
1000.09209096656 0.9999999855893414
1000.0930910591511 0.9999999855893474
1000.0940911527421 0.9999999855893537
1000.0950912473332 0.99999998558936
1000.0960913429245 0.9999999855893664
1000.0970914395157 0.9999999855893729
1000.0980915371073 0.9999999855893792
1000.0990916356989 0.9999999855893856
1000.1000917352904 0.9999999855893922
1000.1010918358822 0.9999999855893986
1000.1020919374741 0.9999999855894051
1000.103092040066 0.9999999855894118
1000.104092143658 0.9999999855894183
1000.1050922482502 0.9999999855894247
1000.1060923538424 0.999999985589431
1000.1070924604346 0.999999985589437
1000.1080925680272 0.9999999855894427
1000.1090926766199 0.9999999855894485
1000.1100927862127 0.9999999855894542
1000.1110928968052 0.9999999855894601
1000.1120930083981 0.9999999855894666
1000.1130931209912 0.9999999855894732
1000.1140932345844 0.9999999855894804
1000.1150933491775 0.9999999855894877
1000.1160934647708 0.9999999855894952
1000.1170935813644 0.9999999855895026
1000.1180936989581 0.9999999855895101
1000.1190938175519 0.9999999855895171
1000.1200939371456 0.9999999855895236
1000.1210940577396 0.9999999855895296
1000.1220941793334 0.9999999855895348
1000.1230943019278 0.9999999855895395
1000.1240944255222 0.9999999855895438
1000.1250945501166 0.9999999855895478
1000.1260946757113 0.9999999855895522
1000.1270948023059 0.9999999855895568
1000.1280949299006 0.9999999855895619
1000.1290950584957 0.9999999855895676
1000.1300951880909 0.9999999855895737
1000.1310953186861 0.9999999855895799
1000.1320954502813 0.9999999855895866
1000.1330955828766 0.9999999855895931
1000.1340957164724 0.9999999855895996
1000.1350958510682 0.9999999855896058
1000.1360959866639 0.999999985589612
1000.1370961232601 0.9999999855896181
1000.138096260856 0.9999999855896239
1000.1390963994523 0.9999999855896298
1000.1400965390488 0.9999999855896357
1000.1410966796454 0.9999999855896415
1000.1420968212423 0.9999999855896479
1000.1430969638391 0.9999999855896544
1000.144097107436 0.9999999855896612
1000.1450972520331 0.9999999855896684
1000.1460973976305 0.9999999855896757
1000.1470975442279 0.999999985589683
1000.1480976918256 0.9999999855896902
1000.149097840423 0.9999999855896972
1000.1500979900211 0.999999985589704
1000.151098140619 0.9999999855897107
1000.1520982922174 0.9999999855897173
1000.1530984448154 0.9999999855897237
1000.154098598414 0.9999999855897301
1000.1550987530128 0.9999999855897366
1000.1560989086115 0.9999999855897429
1000.1570990652104 0.999999985589749
1000.1580992228096 0.9999999855897547
1000.1590993814089 0.9999999855897603
1000.1600995410081 0.9999999855897655
1000.1610997016078 0.9999999855897707
1000.1620998632073 0.999999985589776
1000.1631000258074 0.9999999855897812
1000.1641001894075 0.9999999855897864
1000.1651003540076 0.9999999855897915
1000.1661005196083 0.9999999855897966
1000.1671006862088 0.9999999855898019
1000.1681008538095 0.9999999855898071
1000.1691010224106 0.9999999855898126
1000.1701011920115 0.9999999855898185
1000.1711013626126 0.9999999855898246
1000.172101534214 0.999999985589831
1000.1731017068156 0.9999999855898377
1000.1741018804173 0.9999999855898445
1000.1751020550191 0.9999999855898515
1000.176102230621 0.9999999855898584
1000.1771024072235 0.9999999855898655
1000.178102584826 0.9999999855898724
1000.1791027634283 0.9999999855898796
1000.1801029430311 0.9999999855898868
1000.1811031236343 0.999999985589894
1000.1821033052373 0.9999999855899011
1000.1831034878404 0.9999999855899079
1000.1841036714444 0.9999999855899144
1000.185103856048 0.9999999855899209
1000.186104041652 0.9999999855899272
1000.1871042282562 0.9999999855899336
1000.1881044158606 0.99999998558994
1000.1891046044649 0.9999999855899465
1000.1901047940696 0.9999999855899526
1000.1911049846746 0.9999999855899588
1000.1921051762795 0.9999999855899648
1000.1931053688846 0.9999999855899707
1000.19410556249 0.9999999855899765
1000.1951057570957 0.9999999855899822
1000.1961059527016 0.9999999855899877
1000.1971061493076 0.9999999855899935
1000.1981063469138 0.9999999855899993
1000.1991065455202 0.999999985590005
1000.2001067451266 0.9999999855900111
1000.2011069457335 0.9999999855900172
1000.2021071473406 0.9999999855900232
1000.2031073499479 0.9999999855900292
1000.2041075535553 0.9999999855900354
1000.205107758163 0.9999999855900417
1000.2061079637706 0.9999999855900481
1000.2071081703787 0.9999999855900548
1000.2081083779867 0.9999999855900619
1000.2091085865953 0.9999999855900691
1000.2101087962038 0.9999999855900765
1000.2111090068129 0.9999999855900842
1000.2121092184218 0.9999999855900915
1000.2131094310312 0.9999999855900986
1000.2141096446406 0.9999999855901054
1000.2151098592504 0.9999999855901118
1000.2161100748604 0.9999999855901177
1000.2171102914705 0.9999999855901233
1000.2181105090809 0.9999999855901286
1000.2191107276915 0.9999999855901335
1000.2201109473023 0.999999985590138
1000.2211111679131 0.9999999855901426
1000.2221113895246 0.9999999855901471
1000.2231116121359 0.9999999855901518
1000.2241118357476 0.999999985590157
1000.2251120603597 0.9999999855901623
1000.2261122859717 0.9999999855901679
1000.2271125125843 0.9999999855901737
1000.2281127401967 0.9999999855901792
1000.2291129688095 0.9999999855901849
1000.2301131984226 0.9999999855901903
1000.2311134290359 0.9999999855901957
1000.2321136606492 0.9999999855902009
1000.2331138932632 0.9999999855902058
1000.2341141268771 0.9999999855902106
1000.2351143614912 0.9999999855902153
1000.2361145971057 0.9999999855902202
1000.2371148337205 0.9999999855902248
1000.2381150713354 0.99999998559023
1000.2391153099505 0.9999999855902354
1000.240115549566 0.9999999855902411
1000.2411157901815 0.9999999855902469
1000.2421160317974 0.999999985590253
1000.2431162744135 0.9999999855902592
1000.2441165180297 0.9999999855902653
1000.2451167626463 0.9999999855902715
1000.2461170082632 0.9999999855902777
1000.2471172548803 0.9999999855902841
1000.2481175024976 0.9999999855902909
1000.2491177511153 0.9999999855902979
1000.250118000733 0.9999999855903053
1000.2511182513512 0.9999999855903129
1000.2521185029693 0.9999999855903203
1000.253118755588 0.9999999855903277
1000.254119009207 0.999999985590335
1000.255119263826 0.9999999855903421
1000.2561195194453 0.9999999855903494
1000.2571197760649 0.9999999855903566
1000.2581200336847 0.9999999855903642
1000.2591202923049 0.9999999855903717
1000.2601205519254 0.9999999855903791
1000.2611208125461 0.9999999855903864
1000.2621210741669 0.9999999855903935
1000.2631213367881 0.9999999855904004
1000.2641216004095 0.9999999855904071
1000.2651218650311 0.9999999855904134
1000.2661221306531 0.999999985590419
1000.2671223972753 0.9999999855904245
1000.2681226648979 0.9999999855904295
1000.2691229335207 0.9999999855904345
1000.2701232031435 0.9999999855904397
1000.2711234737669 0.999999985590445
1000.2721237453907 0.9999999855904508
1000.2731240180144 0.9999999855904569
1000.2741242916385 0.9999999855904632
1000.2751245662629 0.9999999855904697
1000.2761248418876 0.9999999855904762
1000.2771251185125 0.9999999855904828
1000.2781253961376 0.9999999855904891
1000.2791256747632 0.9999999855904953
1000.2801259543891 0.9999999855905013
1000.2811262350151 0.999999985590507
1000.2821265166416 0.9999999855905124
1000.2831267992681 0.9999999855905176
1000.2841270828949 0.9999999855905228
1000.2851273675221 0.9999999855905283
1000.2861276531496 0.9999999855905342
1000.2871279397773 0.9999999855905404
1000.2881282274054 0.9999999855905474
1000.2891285160338 0.9999999855905547
1000.2901288056626 0.9999999855905624
1000.2911290962913 0.9999999855905702
1000.2921293879206 0.9999999855905782
1000.29312968055 0.999999985590586
1000.2941299741797 0.9999999855905936
1000.2951302688098 0.9999999855906007
1000.2961305644403 0.9999999855906073
1000.2971308610711 0.9999999855906135
1000.298131158702 0.9999999855906195
1000.299131457333 0.9999999855906252
1000.3001317569648 0.9999999855906311
1000.3011320575966 0.999999985590637
1000.3021323592287 0.999999985590643
1000.3031326618612 0.9999999855906492
1000.304132965494 0.9999999855906554
1000.3051332701272 0.9999999855906618
1000.3061335757607 0.9999999855906684
1000.3071338823943 0.999999985590675
1000.3081341900283 0.9999999855906816
1000.3091344986627 0.9999999855906883
1000.3101348082973 0.9999999855906948
1000.3111351189324 0.9999999855907012
1000.3121354305675 0.999999985590708
1000.3131357432031 0.9999999855907148
1000.3141360568391 0.9999999855907216
1000.3151363714751 0.9999999855907282
1000.3161366871118 0.9999999855907347
1000.3171370037486 0.9999999855907408
1000.3181373213856 0.9999999855907467
1000.3191376400231 0.9999999855907523
1000.320137959661 0.9999999855907578
1000.3211382802991 0.9999999855907633
1000.3221386019376 0.9999999855907687
1000.3231389245761 0.9999999855907746
1000.3241392482154 0.9999999855907806
1000.3251395728545 0.9999999855907866
1000.3261398984943 0.999999985590793
1000.3271402251344 0.9999999855907995
1000.3281405527748 0.9999999855908062
1000.3291408814154 0.9999999855908132
1000.3301412110563 0.9999999855908203
1000.3311415416975 0.999999985590828
1000.3321418733395 0.9999999855908356
1000.3331422059815 0.999999985590843
1000.3341425396235 0.9999999855908502
1000.3351428742664 0.9999999855908569
1000.3361432099094 0.9999999855908633
1000.3371435465527 0.9999999855908693
1000.3381438841965 0.9999999855908753
1000.3391442228403 0.9999999855908813
1000.3401445624847 0.9999999855908873
1000.3411449031296 0.9999999855908934
1000.3421452447743 0.9999999855908998
1000.3431455874198 0.9999999855909065
1000.3441459310656 0.9999999855909134
1000.3451462757116 0.9999999855909206
1000.3461466213582 0.9999999855909277
1000.3471469680048 0.9999999855909348
1000.3481473156519 0.9999999855909417
1000.3491476642994 0.9999999855909484
1000.3501480139473 0.9999999855909548
1000.3511483645954 0.999999985590961
1000.3521487162437 0.9999999855909674
1000.3531490688927 0.9999999855909737
1000.3541494225418 0.9999999855909802
1000.3551497771913 0.9999999855909869
1000.3561501328413 0.9999999855909936
1000.3571504894916 0.9999999855910001
1000.3581508471422 0.9999999855910063
1000.3591512057932 0.9999999855910122
1000.3601515654447 0.9999999855910179
1000.3611519260962 0.9999999855910233
1000.3621522877484 0.9999999855910287
1000.3631526504007 0.9999999855910344
1000.3641530140533 0.9999999855910404
1000.3651533787065 0.999999985591047
1000.3661537443601 0.9999999855910541
1000.3671541110142 0.9999999855910617
1000.3681544786683 0.9999999855910695
1000.3691548473229 0.9999999855910773
1000.3701552169779 0.9999999855910848
1000.3711555876331 0.999999985591092
1000.372155959289 0.9999999855910989
1000.3731563319452 0.9999999855911056
1000.3741567056016 0.9999999855911118
1000.3751570802583 0.9999999855911178
1000.3761574559159 0.9999999855911232
1000.3771578325733 0.9999999855911285
1000.3781582102313 0.9999999855911333
1000.3791585888897 0.999999985591138
1000.3801589685486 0.9999999855911428
1000.3811593492076 0.9999999855911476
1000.3821597308672 0.9999999855911528
1000.3831601135271 0.9999999855911581
1000.3841604971875 0.999999985591164
1000.385160881848 0.99999998559117
1000.3861612675092 0.9999999855911765
1000.3871616541704 0.9999999855911831
1000.3881620418323 0.9999999855911899
1000.3891624304945 0.999999985591197
1000.3901628201571 0.9999999855912041
1000.39116321082 0.9999999855912113
1000.3921636024834 0.9999999855912186
1000.3931639951471 0.9999999855912258
1000.3941643888114 0.999999985591233
1000.3951647834758 0.99999998559124
1000.3961651791407 0.999999985591247
1000.3971655758062 0.9999999855912538
1000.3981659734719 0.9999999855912606
1000.3991663721378 0.9999999855912673
1000.4001667718045 0.999999985591274
1000.4011671724716 0.9999999855912806
1000.4021675741387 0.9999999855912866
1000.4031679768065 0.999999985591292
1000.4041683804746 0.9999999855912969
1000.4051687851431 0.9999999855913014
1000.4061691908121 0.9999999855913063
1000.4071695974815 0.9999999855913114
1000.4081700051511 0.9999999855913174
1000.4091704138214 0.9999999855913239
1000.410170823492 0.9999999855913307
1000.4111712341629 0.9999999855913377
1000.4121716458344 0.9999999855913445
1000.4131720585063 0.9999999855913508
1000.4141724721785 0.9999999855913568
1000.4151728868513 0.9999999855913628
1000.4161733025242 0.999999985591369
1000.4171737191976 0.9999999855913755
1000.4181741368717 0.9999999855913821
1000.4191745555461 0.9999999855913885
1000.4201749752206 0.9999999855913945
1000.4211753958958 0.9999999855914
1000.4221758175713 0.9999999855914051
1000.4231762402471 0.9999999855914101
1000.4241766639237 0.999999985591415
1000.4251770886004 0.9999999855914201
1000.4261775142776 0.9999999855914254
1000.4271779409554 0.9999999855914311
1000.4281783686337 0.9999999855914368
1000.4291787973121 0.9999999855914427
1000.4301792269913 0.9999999855914486
1000.4311796576706 0.9999999855914548
1000.4321800893504 0.999999985591461
1000.4331805220305 0.9999999855914672
1000.4341809557111 0.9999999855914737
1000.4351813903924 0.9999999855914801
1000.436181826074 0.9999999855914863
1000.437182262756 0.9999999855914925
1000.4381827004385 0.9999999855914987
1000.4391831391212 0.9999999855915046
1000.4401835788046 0.9999999855915104
1000.4411840194883 0.9999999855915158
1000.4421844611727 0.999999985591521
1000.4431849038573 0.999999985591526
1000.4441853475425 0.9999999855915308
1000.4451857922281 0.9999999855915355
1000.4461862379142 0.9999999855915404
1000.4471866846006 0.999999985591545
1000.4481871322876 0.9999999855915498
1000.449187580975 0.9999999855915543
1000.4501880306628 0.999999985591559
1000.4511884813512 0.9999999855915638
1000.4521889330398 0.9999999855915689
1000.4531893857289 0.9999999855915742
1000.4541898394186 0.99999998559158
1000.4551902941087 0.9999999855915861
1000.4561907497991 0.9999999855915926
1000.4571912064902 0.9999999855915995
1000.4581916641815 0.9999999855916069
1000.4591921228734 0.9999999855916146
1000.4601925825657 0.9999999855916224
1000.4611930432583 0.9999999855916303
1000.4621935049518 0.9999999855916378
1000.4631939676453 0.9999999855916452
1000.4641944313394 0.9999999855916522
1000.4651948960341 0.9999999855916589
1000.4661953617292 0.9999999855916656
1000.4671958284248 0.9999999855916722
1000.4681962961208 0.9999999855916788
1000.4691967648173 0.9999999855916853
1000.4701972345143 0.999999985591692
1000.4711977052117 0.9999999855916989
1000.4721981769096 0.9999999855917061
1000.473198649608 0.9999999855917133
1000.474199123307 0.9999999855917203
1000.4751995980062 0.9999999855917273
1000.4762000737059 0.999999985591734
1000.4772005504062 0.9999999855917405
1000.4782010281068 0.9999999855917467
1000.4792015068081 0.9999999855917533
1000.4802019865099 0.9999999855917596
1000.4812024672121 0.999999985591766
1000.4822029489148 0.9999999855917723
1000.4832034316181 0.9999999855917783
1000.4842039153217 0.999999985591784
1000.4852044000259 0.9999999855917894
1000.4862048857303 0.9999999855917945
1000.4872053724354 0.9999999855917996
1000.4882058601407 0.9999999855918049
1000.489206348847 0.9999999855918107
1000.4902068385535 0.9999999855918169
1000.4912073292606 0.9999999855918238
1000.4922078209681 0.9999999855918308
1000.4932083136761 0.9999999855918378
1000.4942088073846 0.9999999855918446
1000.4952093020935 0.9999999855918507
1000.496209797803 0.9999999855918562
1000.4972102945131 0.9999999855918611
1000.4982107922236 0.9999999855918655
1000.4992112909346 0.9999999855918699
1000.5002117906462 0.9999999855918741
1000.5012122913581 0.9999999855918782
1000.5022127930706 0.9999999855918823
1000.5032132957836 0.9999999855918866
1000.5042137994972 0.9999999855918913
1000.5052143042112 0.9999999855918961
1000.5062148099256 0.9999999855919012
1000.5072153166407 0.9999999855919065
1000.5082158243563 0.9999999855919119
1000.5092163330723 0.9999999855919173
1000.5102168427889 0.9999999855919226
1000.5112173535059 0.9999999855919282
1000.5122178652234 0.9999999855919335
1000.5132183779415 0.9999999855919393
1000.5142188916603 0.999999985591945
1000.5152194063793 0.9999999855919508
1000.5162199220989 0.9999999855919569
1000.5172204388191 0.9999999855919629
1000.5182209565398 0.9999999855919689
1000.5192214752609 0.9999999855919748
1000.5202219949825 0.9999999855919806
1000.5212225157047 0.9999999855919863
1000.5222230374275 0.9999999855919917
1000.5232235601508 0.9999999855919969
1000.5242240838744 0.999999985592002
1000.5252246085989 0.9999999855920071
