Atmospheric Species: CH4_CO_CO2_H2O_NH3
Metallicity: 10000
C/O_Ratio: 0.5
Wavelength[nm] Flux_variation
999.9990867268679 0.9999919676314853
1000.0000867264545 0.9999924799881131
1000.0010867270413 0.9999927970740246
1000.0020867286277 0.9999929744230686
1000.0030867312147 0.99999309676687
1000.0040867348013 0.999993240375329
1000.0050867393879 0.9999934448633305
1000.0060867449746 0.9999937045598314
1000.0070867515615 0.9999939820989011
1000.0080867591481 0.9999942322401251
1000.0090867677349 0.99999441937955
1000.0100867773216 0.9999945221026586
1000.0110867879083 0.9999945292955004
1000.0120867994951 0.9999944349194296
1000.0130868120818 0.9999942336609333
1000.0140868256685 0.9999939171653469
1000.0150868402555 0.9999934711017605
1000.0160868558423 0.9999928748845219
1000.0170868724291 0.9999921098645304
1000.0180868900158 0.9999911808915407
1000.0190869086025 0.9999901436103189
1000.0200869281896 0.9999891120498782
1000.0210869487765 0.9999882264456553
1000.0220869703634 0.9999876030527577
1000.0230869929503 0.9999873085169527
1000.0240870165372 0.99998736791995
1000.0250870411243 0.9999877809546314
1000.0260870667114 0.9999885224972748
1000.0270870932983 0.9999895237761385
1000.0280871208853 0.9999906517444226
1000.0290871494724 0.9999917265201393
1000.0300871790596 0.9999925847631211
1000.0310872096469 0.9999931332007793
1000.0320872412341 0.9999933468140212
1000.0330872738213 0.9999932398093409
1000.0340873074085 0.9999928566393055
1000.035087341996 0.9999922866793124
1000.0360873775834 0.999991667959172
1000.0370874141706 0.9999911551977685
1000.0380874517581 0.9999908684923701
1000.0390874903455 0.9999908542894107
1000.040087529933 0.9999910701392402
1000.0410875705202 0.9999913925059478
1000.0420876121078 0.9999916546507963
1000.0430876546953 0.9999917157525849
1000.0440876982829 0.9999915284698246
1000.0450877428707 0.9999911585511054
1000.0460877884583 0.9999907481657723
1000.0470878350463 0.9999904529837464
1000.0480878826341 0.9999903879936839
1000.0490879312221 0.9999906005477166
1000.0500879808101 0.999991070804086
1000.0510880313981 0.9999917305293944
1000.052088082986 0.9999924882247412
1000.0530881355742 0.9999932522737024
1000.0540881891621 0.9999939486914087
1000.0550882437503 0.9999945331602773
1000.0560882993386 0.9999949947003053
1000.057088355927 0.9999953493677657
1000.0580884135152 0.9999956268341283
1000.0590884721038 0.9999958549492786
1000.0600885316923 0.9999960480212468
1000.0610885922806 0.9999962035779941
1000.0620886538691 0.9999963089856054
1000.0630887164579 0.9999963543555956
1000.0640887800465 0.9999963449445812
1000.0650888446352 0.9999963053114284
1000.0660889102243 0.9999962721391746
1000.0670889768132 0.9999962788691077
1000.0680890444022 0.9999963418634764
1000.0690891129912 0.9999964556572534
1000.0700891825802 0.999996598261318
1000.0710892531694 0.9999967414191407
1000.0720893247585 0.9999968585665213
1000.0730893973481 0.9999969252198174
1000.0740894709373 0.9999969125130966
1000.0750895455268 0.9999967827598523
1000.0760896211164 0.9999965005401013
1000.077089697706 0.9999960637573063
1000.0780897752954 0.9999955359749447
1000.0790898538854 0.9999950448787444
1000.0800899334753 0.9999947349114713
1000.0810900140654 0.9999947066231805
1000.0820900956553 0.9999949789398064
1000.0830901782452 0.9999954844129316
1000.0840902618355 0.9999960962876052
1000.0850903464259 0.9999966812974691
1000.0860904320161 0.9999971528397834
1000.0870905186066 0.9999974893469064
1000.0880906061968 0.999997714076411
1000.0890906947876 0.9999978627922905
1000.0900907843783 0.999997961801133
1000.091090874969 0.9999980219406738
1000.09209096656 0.9999980454228474
1000.0930910591511 0.9999980378253921
1000.0940911527421 0.999998016139274
1000.0950912473332 0.9999980052987897
1000.0960913429245 0.9999980262270433
1000.0970914395157 0.9999980865306172
1000.0980915371073 0.9999981817387703
1000.0990916356989 0.9999983032279628
1000.1000917352904 0.9999984430085562
1000.1010918358822 0.9999985911202968
1000.1020919374741 0.9999987306886636
1000.103092040066 0.9999988380426843
1000.104092143658 0.9999988883100907
1000.1050922482502 0.9999988610084533
1000.1060923538424 0.9999987412991187
1000.1070924604346 0.9999985180913605
1000.1080925680272 0.9999981845561787
1000.1090926766199 0.9999977464186791
1000.1100927862127 0.9999972371121681
1000.1110928968052 0.9999967296771662
1000.1120930083981 0.9999963272545321
1000.1130931209912 0.9999961274936401
1000.1140932345844 0.9999961806567481
1000.1150933491775 0.9999964641973175
1000.1160934647708 0.9999968880627464
1000.1170935813644 0.9999973318033413
1000.1180936989581 0.9999976971051825
1000.1190938175519 0.9999979429446006
1000.1200939371456 0.9999980825483096
1000.1210940577396 0.9999981563480226
1000.1220941793334 0.9999982052715627
1000.1230943019278 0.9999982568151253
1000.1240944255222 0.9999983228444217
1000.1250945501166 0.9999984032895131
1000.1260946757113 0.9999984914649764
1000.1270948023059 0.9999985788070398
1000.1280949299006 0.9999986582713187
1000.1290950584957 0.9999987251813319
1000.1300951880909 0.9999987748623316
1000.1310953186861 0.9999987985546409
1000.1320954502813 0.9999987818617323
1000.1330955828766 0.9999987097550329
1000.1340957164724 0.9999985781115435
1000.1350958510682 0.9999984056085749
1000.1360959866639 0.9999982360284263
1000.1370961232601 0.9999981244279935
1000.138096260856 0.9999981124020041
1000.1390963994523 0.9999982079691083
1000.1400965390488 0.9999983838133608
1000.1410966796454 0.9999985941318846
1000.1420968212423 0.9999987968828206
1000.1430969638391 0.9999989668943118
1000.144097107436 0.9999990953731301
1000.1450972520331 0.9999991821688126
1000.1460973976305 0.9999992290004701
1000.1470975442279 0.9999992374002582
1000.1480976918256 0.9999992101101721
1000.149097840423 0.9999991531574755
1000.1500979900211 0.9999990764229072
1000.151098140619 0.9999989918093718
1000.1520982922174 0.9999989095095627
1000.1530984448154 0.9999988348028023
1000.154098598414 0.9999987686973458
1000.1550987530128 0.9999987131880418
1000.1560989086115 0.9999986770357708
1000.1570990652104 0.9999986755379296
1000.1580992228096 0.9999987225221654
1000.1590993814089 0.9999988204472322
1000.1600995410081 0.9999989568963737
1000.1610997016078 0.9999991096973487
1000.1620998632073 0.9999992557974127
1000.1631000258074 0.99999937762907
1000.1641001894075 0.9999994645647869
1000.1651003540076 0.9999995110943051
1000.1661005196083 0.9999995142379683
1000.1671006862088 0.9999994719234866
1000.1681008538095 0.9999993832149887
1000.1691010224106 0.9999992506309127
1000.1701011920115 0.9999990837435715
1000.1711013626126 0.999998901410019
1000.172101534214 0.999998729248119
1000.1731017068156 0.9999985911770155
1000.1741018804173 0.9999984985195449
1000.1751020550191 0.9999984433822855
1000.176102230621 0.9999984018047445
1000.1771024072235 0.999998346813218
1000.178102584826 0.9999982648762568
1000.1791027634283 0.999998165494
1000.1801029430311 0.9999980762173571
1000.1811031236343 0.9999980253306342
1000.1821033052373 0.999998023999023
1000.1831034878404 0.9999980599450998
1000.1841036714444 0.9999981045882916
1000.185103856048 0.9999981255009333
1000.186104041652 0.999998095620331
1000.1871042282562 0.999997996466103
1000.1881044158606 0.9999978172273388
1000.1891046044649 0.9999975521279212
1000.1901047940696 0.9999971989145967
1000.1911049846746 0.9999967616455261
1000.1921051762795 0.9999962590856949
1000.1931053688846 0.9999957346841114
1000.19410556249 0.9999952583627434
1000.1951057570957 0.999994912119302
1000.1961059527016 0.9999947623288421
1000.1971061493076 0.9999948325265671
1000.1981063469138 0.9999950919704608
1000.1991065455202 0.999995467199694
1000.2001067451266 0.9999958716780544
1000.2011069457335 0.9999962355465054
1000.2021071473406 0.9999965174385138
1000.2031073499479 0.9999966958722717
1000.2041075535553 0.9999967557768151
1000.205107758163 0.9999966870613886
1000.2061079637706 0.9999964986324195
1000.2071081703787 0.9999962342794227
1000.2081083779867 0.9999959702573222
1000.2091085865953 0.9999957867734869
1000.2101087962038 0.9999957285268622
1000.2111090068129 0.9999957799338232
1000.2121092184218 0.9999958738884676
1000.2131094310312 0.9999959339522564
1000.2141096446406 0.9999959247459583
1000.2151098592504 0.9999958728323262
1000.2161100748604 0.9999958418973698
1000.2171102914705 0.999995887826439
1000.2181105090809 0.9999960304834332
1000.2191107276915 0.9999962550992096
1000.2201109473023 0.9999965289898333
1000.2211111679131 0.999996815287544
1000.2221113895246 0.9999970785963911
1000.2231116121359 0.9999972886934148
1000.2241118357476 0.9999974256071433
1000.2251120603597 0.999997482553955
1000.2261122859717 0.999997464408058
1000.2271125125843 0.9999973830380005
1000.2281127401967 0.9999972522101865
1000.2291129688095 0.9999970835295049
1000.2301131984226 0.9999968840141401
1000.2311134290359 0.9999966558780229
1000.2321136606492 0.9999963970953274
1000.2331138932632 0.9999961026621544
1000.2341141268771 0.9999957691729081
1000.2351143614912 0.999995405637333
1000.2361145971057 0.9999950457536005
1000.2371148337205 0.9999947482994169
1000.2381150713354 0.999994576914276
1000.2391153099505 0.9999945686042538
1000.240115549566 0.999994712574381
1000.2411157901815 0.9999949537190558
1000.2421160317974 0.9999952156354486
1000.2431162744135 0.9999954240717653
1000.2441165180297 0.9999955148379014
1000.2451167626463 0.9999954284277051
1000.2461170082632 0.9999951088546563
1000.2471172548803 0.9999945221997221
1000.2481175024976 0.9999936924389297
1000.2491177511153 0.9999927267256228
1000.250118000733 0.9999917969355514
1000.2511182513512 0.9999910818101041
1000.2521185029693 0.9999907132161792
1000.253118755588 0.9999907564431729
1000.254119009207 0.9999912122720205
1000.255119263826 0.9999920194256283
1000.2561195194453 0.9999930577657715
1000.2571197760649 0.9999941709120671
1000.2581200336847 0.9999952131822523
1000.2591202923049 0.9999960929545167
1000.2601205519254 0.9999967829037709
1000.2611208125461 0.9999972999944631
1000.2621210741669 0.9999976794158295
1000.2631213367881 0.9999979576409832
1000.2641216004095 0.9999981646269411
1000.2651218650311 0.9999983208008566
1000.2661221306531 0.9999984377407363
1000.2671223972753 0.9999985237475927
1000.2681226648979 0.9999985919677471
1000.2691229335207 0.9999986636179976
1000.2701232031435 0.9999987610693392
1000.2711234737669 0.9999988951136264
1000.2721237453907 0.9999990577136729
1000.2731240180144 0.999999227127686
1000.2741242916385 0.9999993809825494
1000.2751245662629 0.9999995069048937
1000.2761248418876 0.9999996043275285
1000.2771251185125 0.9999996797337073
1000.2781253961376 0.9999997411838194
1000.2791256747632 0.9999997947917465
1000.2801259543891 0.9999998436684231
1000.2811262350151 0.9999998881731483
1000.2821265166416 0.9999999270123643
1000.2831267992681 0.999999958502518
1000.2841270828949 0.999999981430518
1000.2851273675221 0.9999999952709906
1000.2861276531496 1.0
1000.2871279397773 0.9999999958190019
1000.2881282274054 0.9999999829396405
1000.2891285160338 0.9999999614175112
1000.2901288056626 0.9999999315029013
1000.2911290962913 0.9999998946128628
1000.2921293879206 0.9999998546725191
1000.29312968055 0.9999998183470993
1000.2941299741797 0.9999997929555438
1000.2951302688098 0.9999997826419699
1000.2961305644403 0.9999997854309317
1000.2971308610711 0.9999997936192303
1000.298131158702 0.9999997974602697
1000.299131457333 0.9999997894273608
1000.3001317569648 0.9999997663521981
1000.3011320575966 0.9999997288497819
1000.3021323592287 0.9999996791456196
1000.3031326618612 0.9999996187670459
1000.304132965494 0.999999546701853
1000.3051332701272 0.9999994585050155
1000.3061335757607 0.9999993464515885
1000.3071338823943 0.9999992002300563
1000.3081341900283 0.9999990068924579
1000.3091344986627 0.999998749693477
1000.3101348082973 0.9999984060369167
1000.3111351189324 0.999997948179857
1000.3121354305675 0.9999973525238092
1000.3131357432031 0.999996621307743
1000.3141360568391 0.9999958092571033
1000.3151363714751 0.9999950329544108
1000.3161366871118 0.9999944437865428
1000.3171370037486 0.9999941744686551
1000.3181373213856 0.9999942906081751
1000.3191376400231 0.9999947646690812
1000.320137959661 0.9999954766598416
1000.3211382802991 0.9999962492049685
1000.3221386019376 0.9999969149655786
1000.3231389245761 0.9999973791950293
1000.3241392482154 0.9999976345970648
1000.3251395728545 0.9999977314052688
1000.3261398984943 0.9999977381624247
1000.3271402251344 0.9999977164616514
1000.3281405527748 0.999997709617028
1000.3291408814154 0.9999977392449877
1000.3301412110563 0.999997807848593
1000.3311415416975 0.9999979081614193
1000.3321418733395 0.9999980334000805
1000.3331422059815 0.9999981804053383
1000.3341425396235 0.9999983446867634
1000.3351428742664 0.9999985152108265
1000.3361432099094 0.9999986766254538
1000.3371435465527 0.9999988167770169
1000.3381438841965 0.9999989316305181
1000.3391442228403 0.9999990233721787
1000.3401445624847 0.9999990950242398
1000.3411449031296 0.9999991471682913
1000.3421452447743 0.9999991783420482
1000.3431455874198 0.9999991871921894
1000.3441459310656 0.9999991739577402
1000.3451462757116 0.9999991405360433
1000.3461466213582 0.9999990896920604
1000.3471469680048 0.9999990240619991
1000.3481473156519 0.9999989454691999
1000.3491476642994 0.9999988548393949
1000.3501480139473 0.9999987525059985
1000.3511483645954 0.9999986381788006
1000.3521487162437 0.9999985094470198
1000.3531490688927 0.999998358404054
1000.3541494225418 0.9999981678973294
1000.3551497771913 0.9999979113104631
1000.3561501328413 0.9999975603813852
1000.3571504894916 0.9999971015078667
1000.3581508471422 0.9999965505319115
1000.3591512057932 0.9999959478856486
1000.3601515654447 0.9999953304762295
1000.3611519260962 0.9999947058873938
1000.3621522877484 0.9999940631598707
1000.3631526504007 0.9999934207383645
1000.3641530140533 0.9999928612115461
1000.3651533787065 0.9999925057665183
1000.3661537443601 0.9999924503727858
1000.3671541110142 0.9999927163034371
1000.3681544786683 0.9999932351279325
1000.3691548473229 0.9999938656769417
1000.3701552169779 0.9999944419138654
1000.3711555876331 0.9999948352011278
1000.372155959289 0.9999949906319229
1000.3731563319452 0.9999949197262016
1000.3741567056016 0.9999946705392062
1000.3751570802583 0.9999943029772885
1000.3761574559159 0.9999938762595936
1000.3771578325733 0.9999934397273742
1000.3781582102313 0.9999930216456544
1000.3791585888897 0.9999926232304837
1000.3801589685486 0.9999922276027654
1000.3811593492076 0.9999918228787349
1000.3821597308672 0.9999914240802693
1000.3831601135271 0.9999910762761957
1000.3841604971875 0.9999908324780569
1000.385160881848 0.9999907169741096
1000.3861612675092 0.9999906917211295
1000.3871616541704 0.9999906449643697
1000.3881620418323 0.9999904264368852
1000.3891624304945 0.9999899386372787
1000.3901628201571 0.9999892304359373
1000.39116321082 0.9999884891307009
1000.3921636024834 0.9999879286048584
1000.3931639951471 0.9999876984022987
1000.3941643888114 0.9999878773386753
1000.3951647834758 0.9999884971581997
1000.3961651791407 0.9999895389449885
1000.3971655758062 0.9999908936136045
1000.3981659734719 0.9999923444158485
1000.3991663721378 0.9999936463363093
1000.4001667718045 0.9999946523626329
1000.4011671724716 0.9999953544981277
1000.4021675741387 0.9999958250957223
1000.4031679768065 0.9999961468600808
1000.4041683804746 0.9999963803525244
1000.4051687851431 0.9999965612814692
1000.4061691908121 0.9999967069946555
1000.4071695974815 0.9999968242500696
1000.4081700051511 0.9999969148922022
1000.4091704138214 0.9999969787727652
1000.410170823492 0.9999970138959805
1000.4111712341629 0.9999970145623627
1000.4121716458344 0.9999969679571269
1000.4131720585063 0.9999968489795621
1000.4141724721785 0.9999966144555319
1000.4151728868513 0.9999962046535832
1000.4161733025242 0.9999955685282965
1000.4171737191976 0.9999947172989858
1000.4181741368717 0.9999937684534049
1000.4191745555461 0.9999929217079386
1000.4201749752206 0.9999923715424224
1000.4211753958958 0.9999922333756169
1000.4221758175713 0.9999925193602132
1000.4231762402471 0.9999931372756665
1000.4241766639237 0.9999939048319025
1000.4251770886004 0.9999946070718075
1000.4261775142776 0.9999950872988844
1000.4271779409554 0.9999952957882342
1000.4281783686337 0.9999952609197652
1000.4291787973121 0.9999950319062745
1000.4301792269913 0.9999946437235692
1000.4311796576706 0.9999941115998132
1000.4321800893504 0.9999934404963536
1000.4331805220305 0.9999926426447581
1000.4341809557111 0.9999917588721536
1000.4351813903924 0.9999908705649755
1000.436181826074 0.9999900859533897
1000.437182262756 0.9999895059453912
1000.4381827004385 0.9999891916514774
1000.4391831391212 0.9999891493937413
1000.4401835788046 0.9999893351664398
1000.4411840194883 0.9999896773442254
1000.4421844611727 0.9999901120241368
1000.4431849038573 0.9999906099123521
1000.4441853475425 0.9999911731067871
1000.4451857922281 0.9999918076171238
1000.4461862379142 0.9999924990110653
1000.4471866846006 0.999993209234748
1000.4481871322876 0.9999938893768967
1000.449187580975 0.9999944943444528
1000.4501880306628 0.9999949913524622
1000.4511884813512 0.9999953628693946
1000.4521889330398 0.9999956054512184
1000.4531893857289 0.9999957258488368
1000.4541898394186 0.9999957376102926
1000.4551902941087 0.9999956615589688
1000.4561907497991 0.9999955292161081
1000.4571912064902 0.9999953841564296
1000.4581916641815 0.9999952750642886
1000.4591921228734 0.9999952408394378
1000.4601925825657 0.999995295516296
1000.4611930432583 0.9999954231634768
1000.4621935049518 0.9999955867941788
1000.4631939676453 0.9999957443713225
1000.4641944313394 0.9999958612519247
1000.4651948960341 0.9999959125979645
1000.4661953617292 0.99999587896466
1000.4671958284248 0.9999957431941354
1000.4681962961208 0.9999954948854423
1000.4691967648173 0.9999951417913525
1000.4701972345143 0.9999947160691587
1000.4711977052117 0.9999942614691966
1000.4721981769096 0.999993798827507
1000.473198649608 0.9999932911621265
1000.474199123307 0.9999926415259713
1000.4751995980062 0.9999917509852614
1000.4762000737059 0.9999906187189587
1000.4772005504062 0.9999893924308894
1000.4782010281068 0.9999882948907214
1000.4792015068081 0.9999875040851177
1000.4802019865099 0.9999871091225634
1000.4812024672121 0.9999871393355895
1000.4822029489148 0.9999875960917208
1000.4832034316181 0.9999884531390197
1000.4842039153217 0.9999896242286688
1000.4852044000259 0.999990930765507
1000.4862048857303 0.999992137262982
1000.4872053724354 0.9999930593361374
1000.4882058601407 0.9999936395945941
1000.489206348847 0.9999939278350723
1000.4902068385535 0.9999940198542429
1000.4912073292606 0.9999940156254371
1000.4922078209681 0.9999940021173765
1000.4932083136761 0.9999940442343214
1000.4942088073846 0.9999941776060431
1000.4952093020935 0.9999944063736133
1000.496209797803 0.9999947078079696
1000.4972102945131 0.999995040748062
1000.4982107922236 0.9999953544738669
1000.4992112909346 0.999995596746726
1000.5002117906462 0.9999957191398922
1000.5012122913581 0.999995676109529
1000.5022127930706 0.9999954200072796
1000.5032132957836 0.9999949069986508
1000.5042137994972 0.9999941283828477
1000.5052143042112 0.9999931552059492
1000.5062148099256 0.9999921500724887
1000.5072153166407 0.9999913160094338
1000.5082158243563 0.999990820362349
1000.5092163330723 0.9999907520213546
1000.5102168427889 0.9999911148012044
1000.5112173535059 0.9999918292466455
1000.5122178652234 0.9999927428972175
1000.5132183779415 0.9999936749914929
1000.5142188916603 0.9999944893150494
1000.5152194063793 0.9999951364924424
1000.5162199220989 0.9999956330003501
1000.5172204388191 0.9999960119759673
1000.5182209565398 0.9999962930781091
1000.5192214752609 0.9999964811552075
1000.5202219949825 0.9999965773533843
1000.5212225157047 0.9999965860239536
1000.5222230374275 0.9999965140976026
1000.5232235601508 0.9999963673232114
1000.5242240838744 0.9999961492986607
