Atmospheric Species: CH4_CO_CO2_H2O_NH3
Metallicity: 10000
C/O_Ratio: 0.5
Wavelength[nm] Flux_variation
2299.999916647247 0.9999993628560837
2300.0022166483136 0.9999993846753181
2300.00451665168 0.9999994055645806
2300.006816657347 0.999999425228366
2300.0091166653133 0.9999994439895711
2300.0114166755798 0.9999994623176551
2300.0137166881464 0.9999994802370943
2300.016016703013 0.9999994976668686
2300.0183167201794 0.9999995150850484
2300.0206167396464 0.9999995327971345
2300.022916761413 0.999999550147722
2300.0252167854796 0.9999995666613742
2300.0275168118465 0.9999995824144994
2300.0298168405134 0.9999995976963358
2300.03211687148 0.999999612681183
2300.0344169047466 0.9999996271655973
2300.0367169403135 0.9999996415411321
2300.0390169781804 0.9999996564114854
2300.0413170183474 0.9999996713091759
2300.043617060814 0.9999996854294668
2300.0459171055813 0.9999996984006685
2300.0482171526482 0.9999997104294698
2300.0505172020153 0.9999997225696352
2300.0528172536824 0.9999997351100022
2300.0551173076497 0.999999747414929
2300.057417363917 0.9999997598065328
2300.059717422484 0.9999997721171622
2300.0620174833516 0.9999997834180642
2300.0643175465193 0.9999997938526295
2300.0666176119867 0.9999998043662759
2300.068917679754 0.999999814929644
2300.0712177498217 0.999999824198515
2300.0735178221894 0.9999998314420256
2300.075817896857 0.9999998378747471
2300.078117973825 0.9999998464502238
2300.080418053093 0.9999998579988878
2300.0827181346613 0.9999998685705375
2300.0850182185295 0.9999998763507197
2300.0873183046974 0.999999884489657
2300.0896183931654 0.9999998943619676
2300.091918483934 0.9999999036253301
2300.0942185770023 0.9999999113097676
2300.096518672371 0.9999999176713595
2300.09881877004 0.9999999224480359
2300.1011188700086 0.9999999265300272
2300.1034189722773 0.9999999315153331
2300.105719076846 0.9999999359494482
2300.108019183715 0.9999999402785521
2300.110319292884 0.9999999471554317
2300.1126194043536 0.9999999537678455
2300.114919518123 0.9999999561624456
2300.1172196341927 0.9999999450924356
2300.119519752562 0.9999998616833079
2300.121819873232 0.9999995588358092
2300.124119996202 0.9999991182324423
2300.126420121472 0.9999990537758349
2300.128720249042 0.9999994442010954
2300.131020378912 0.9999997055440126
2300.1333205110823 0.9999994878393841
2300.135620645553 0.9999990374082682
2300.1379207823234 0.999998941620088
2300.140220921394 0.9999993472246652
2300.142521062765 0.9999997673923912
2300.144821206436 0.9999999419769442
2300.1471213524073 0.9999999868221212
2300.1494215006787 0.999999996933965
2300.15172165125 0.9999999984405242
2300.154021804122 0.9999999930578328
2300.1563219592936 0.9999999551301003
2300.158622116766 0.9999997462717919
2300.160922276538 0.9999991534897278
2300.1632224386103 0.9999985478724941
2300.1655226029825 0.9999986721357419
2300.1678227696552 0.999999359429963
2300.1701229386276 0.9999998365744537
2300.1724231099006 0.9999999707524208
2300.174723283474 0.9999999942694434
2300.1770234593473 0.9999999993467634
2300.1793236375206 1.0
2300.1816238179945 0.9999999987480306
2300.183924000768 0.9999999968611587
2300.186224185842 0.9999999945826916
2300.1885243732163 0.9999999918445414
2300.1908245628906 0.9999999879617164
2300.1931247548655 0.9999999819366543
2300.19542494914 0.9999999668136571
2300.197725145715 0.9999999008362556
2300.2000253445904 0.9999996927870868
2300.2023255457657 0.9999994193581172
2300.204625749241 0.9999994178304195
2300.2069259550167 0.9999996682835868
2300.209226163093 0.9999998366142587
2300.211526373469 0.9999998940210695
2300.2138265861454 0.999999925214701
2300.216126801122 0.9999999361320608
2300.218427018399 0.9999999326234289
2300.220727237976 0.9999999283013337
2300.2230274598533 0.9999999257598985
2300.2253276840306 0.9999999211855352
2300.2276279105085 0.9999999143894054
2300.2299281392866 0.9999999057687023
2300.2322283703647 0.9999998914134091
2300.234528603743 0.9999998707131819
2300.236828839422 0.9999998576425307
2300.239129077401 0.9999998596393345
2300.24142931768 0.9999998616194358
2300.243729560259 0.9999998559295356
2300.2460298051387 0.9999998496094358
2300.2483300523186 0.9999998447393019
2300.2506303017985 0.9999998382113204
2300.252930553579 0.999999828572672
2300.2552308076597 0.9999998155751119
2300.2575310640404 0.9999998022425399
2300.2598313227218 0.9999997935593534
2300.2621315837027 0.9999997876462154
2300.2644318469847 0.9999997795393389
2300.2667321125664 0.999999769458045
2300.2690323804486 0.999999759109009
2300.271332650631 0.999999748497882
2300.273632923114 0.9999997371144801
2300.275933197897 0.9999997251825011
2300.27823347498 0.9999997132565026
2300.2805337543637 0.999999700912156
2300.2828340360475 0.9999996870692717
2300.2851343200314 0.9999996693295391
2300.287434606316 0.9999996301476627
2300.2897348949004 0.9999995068487086
2300.2920351857856 0.9999992775170002
2300.294335478971 0.9999991572866861
2300.2966357744563 0.9999992876915279
2300.298936072242 0.9999994230812932
2300.3012363723283 0.9999994123895125
2300.303536674715 0.9999994051264638
2300.3058369794016 0.999999465216843
2300.3081372863885 0.999999509615033
2300.310437595676 0.9999995134799617
2300.3127379072635 0.999999502913537
2300.3150382211516 0.9999994893965278
2300.3173385373398 0.9999994738453354
2300.319638855828 0.999999457974537
2300.321939176617 0.9999994423091024
2300.3242394997064 0.9999994261266244
2300.326539825096 0.9999994092857603
2300.328840152786 0.9999993919745461
2300.3311404827764 0.999999374254647
2300.3334408150668 0.999999356148733
2300.3357411496577 0.9999993377001509
2300.3380414865487 0.9999993189243064
2300.3403418257403 0.999999299785614
2300.3426421672325 0.9999992801765302
2300.344942511025 0.999999260045305
2300.347242857117 0.9999992395880235
2300.34954320551 0.9999992190527542
2300.351843556203 0.9999991985660657
2300.3541439091973 0.9999991780133858
2300.356444264491 0.9999991570022675
2300.3587446220854 0.9999991353990538
2300.36104498198 0.9999991133308755
2300.3633453441753 0.9999990908683984
2300.365645708671 0.9999990679965766
2300.3679460754665 0.9999990446993535
2300.370246444563 0.9999990209866292
2300.372546815959 0.9999989966889817
2300.374847189656 0.9999989717575498
2300.377147565653 0.9999989468847807
2300.379447943951 0.9999989223062132
2300.381748324549 0.9999988972569627
2300.3840487074476 0.9999988713971335
2300.3863490926465 0.9999988448719425
2300.388649480146 0.9999988177896425
2300.3909498699454 0.9999987902236551
2300.393250262045 0.9999987623279328
2300.3955506564457 0.9999987342082063
2300.397851053146 0.9999987055894608
2300.4001514521474 0.9999986762189534
2300.402451853449 0.9999986462256995
2300.4047522570504 0.9999986158093309
2300.407052662953 0.9999985847654612
2300.4093530711557 0.9999985526902486
2300.4116534816585 0.9999985200590371
2300.4139538944623 0.9999984877054647
2300.416254309566 0.9999984550958237
2300.4185547269703 0.9999984212610454
2300.420855146675 0.9999983861942191
2300.4231555686806 0.9999983506299239
2300.4254559929864 0.9999983146451202
2300.4277564195922 0.9999982773531595
2300.430056848499 0.999998239071499
2300.432357279706 0.9999982009405486
2300.4346577132137 0.9999981621567625
2300.4369581490214 0.9999981213009462
2300.4392585871296 0.9999980775440618
2300.441559027538 0.9999980237701361
2300.4438594702474 0.9999979439873263
2300.446159915257 0.9999978562950889
2300.448460362567 0.9999978204571237
2300.4507608121776 0.9999978185515022
2300.453061264089 0.9999977954538509
2300.4553617183 0.9999977452890055
2300.4576621748115 0.9999976162606681
2300.459962633624 0.9999972269920714
2300.462263094737 0.9999966884259741
2300.46456355815 0.9999966375891824
2300.4668640238638 0.9999970439758307
2300.469164491878 0.9999973145275287
2300.4714649621924 0.9999973551576413
2300.473765434808 0.9999973111594616
2300.4760659097233 0.9999972488386609
2300.4783663869393 0.9999971831942142
2300.480666866456 0.9999971142815303
2300.4829673482727 0.9999970417291748
2300.4852678323905 0.9999969666626543
2300.4875683188084 0.9999968883629824
2300.489868807527 0.9999968051545916
2300.492169298546 0.9999967166599835
2300.4944697918654 0.9999966231192934
2300.496770287485 0.9999965251685475
2300.499070785406 0.9999964234310356
2300.5013712856266 0.9999963139053544
2300.503671788148 0.9999961686944663
2300.50597229297 0.9999959171050438
2300.5082728000925 0.9999956172886604
2300.5105733095156 0.9999955213976262
2300.512873821239 0.9999955482396282
2300.515174335263 0.9999954651348952
2300.5174748515874 0.9999952921409968
2300.5197753702128 0.9999950837133691
2300.5220758911382 0.9999948468572778
2300.5243764143643 0.9999945746254714
2300.526676939891 0.9999942535423484
2300.5289774677176 0.9999938303657261
2300.5312779978453 0.9999927838609947
2300.5335785302736 0.9999883805824928
2300.5358790650025 0.9999815075132285
2300.5381796020315 0.9999759900898417
2300.5404801413615 0.9999719307487409
2300.5427806829916 0.999969476012855
2300.545081226923 0.9999687185937997
2300.547381773154 0.9999696884308825
2300.5496823216863 0.9999723472679208
2300.5519828725187 0.9999765958099817
2300.5542834256516 0.9999822833892801
2300.556583981085 0.9999891978710467
2300.5588845388197 0.9999930094339556
2300.5611850988544 0.9999938941171025
2300.5634856611896 0.9999942965479947
2300.5657862258254 0.9999946104984063
2300.5680867927617 0.999994877844281
2300.570387361999 0.9999951110318819
2300.5726879335366 0.9999953177669658
2300.5749885073747 0.9999955033256781
2300.5772890835133 0.9999956715504394
2300.5795896619525 0.9999958254051026
2300.5818902426927 0.9999959671531818
2300.584190825733 0.9999960984246886
2300.586491411074 0.9999962205174613
2300.5887919987154 0.9999963345122965
2300.5910925886574 0.9999964410749493
2300.5933931809004 0.9999965370128686
2300.5956937754436 0.9999966024213944
2300.5979943722878 0.9999966206000273
2300.6002949714325 0.9999966656764059
2300.6025955728774 0.9999967761815305
2300.6048961766232 0.9999968628796254
2300.6071967826697 0.9999969556347937
2300.6094973910167 0.9999970817067165
2300.6117980016643 0.9999971841380676
2300.6140986146124 0.9999972587369458
2300.616399229861 0.9999973239614594
2300.618699847411 0.9999973858342635
2300.6210004672607 0.9999974440607696
2300.6233010894116 0.999997496725205
2300.625601713863 0.999997547395133
2300.6279023406146 0.9999976040293728
2300.630202969667 0.9999976628998881
2300.6325036010203 0.9999977171006189
2300.6348042346744 0.9999977674806338
2300.6371048706287 0.9999978161039947
2300.639405508884 0.9999978633639092
2300.6417061494394 0.9999979092470623
2300.644006792296 0.999997953872847
2300.646307437453 0.9999979973222337
2300.6486080849104 0.9999980396110513
2300.650908734669 0.9999980808266459
2300.6532093867277 0.9999981211026843
2300.6555100410874 0.9999981602185207
2300.6578106977477 0.9999981971168707
2300.660111356709 0.9999982314988781
2300.6624120179704 0.9999982667508467
2300.664712681533 0.9999983021851416
2300.667013347396 0.9999983241911329
2300.6693140155594 0.9999983308233747
2300.6716146860235 0.9999983605563998
2300.6739153587887 0.9999984202030986
2300.676216033854 0.9999984722596957
2300.6785167112203 0.9999985100919186
2300.680817390887 0.9999985426067539
2300.6831180728545 0.999998573387367
2300.6854187571225 0.9999986035460489
2300.6877194436915 0.9999986333470553
2300.6900201325616 0.9999986625500883
2300.6923208237317 0.9999986911821878
2300.6946215172034 0.999998719263724
2300.696922212975 0.9999987466926873
2300.6992229110474 0.9999987735130864
2300.7015236114207 0.9999987997942308
2300.7038243140946 0.9999988250559518
2300.706125019069 0.9999988465029971
2300.7084257263446 0.999998857706359
2300.7107264359206 0.9999988586312539
2300.713027147797 0.999998869198623
2300.7153278619744 0.9999989068482604
2300.7176285784526 0.9999989544322683
2300.719929297232 0.9999989895350854
2300.722230018311 0.9999990131931494
2300.7245307416915 0.999999033514628
2300.7268314673724 0.9999990554313319
2300.729132195354 0.999999078091059
2300.7314329256365 0.9999990994470904
2300.73373365822 0.9999991204705511
2300.7360343931036 0.9999991415561412
2300.7383351302883 0.9999991616636447
2300.740635869774 0.9999991797491506
2300.7429366115603 0.9999991966675882
2300.745237355647 0.9999992140538487
2300.7475381020345 0.9999992312086197
2300.749838850723 0.9999992486690868
2300.7521396017123 0.9999992668100373
2300.7544403550023 0.9999992772531197
2300.756741110593 0.9999992384675748
2300.759041868484 0.9999990448976573
2300.761342628676 0.99999874033698
2300.7636433911694 0.9999987040522013
2300.765944155963 0.999999011383677
2300.7682449230574 0.9999992825901847
2300.7705456924527 0.9999993819350466
2300.7728464641486 0.99999941227619
2300.7751472381456 0.999999430096362
2300.777448014443 0.9999994457149132
2300.7797487930416 0.9999994601803588
2300.7820495739406 0.9999994732814314
2300.7843503571403 0.9999994839974976
2300.786651142641 0.9999994923823362
2300.788951930442 0.999999502808953
2300.7912527205444 0.9999995182900779
2300.7935535129477 0.9999995350551077
2300.7958543076516 0.9999995492884942
2300.7981551046564 0.9999995611285661
2300.8004559039614 0.9999995723520905
2300.802756705568 0.9999995838249561
2300.805057509475 0.9999995954988634
2300.8073583156824 0.9999996066996301
2300.809659124191 0.9999996167258733
2300.8119599350007 0.9999996256636856
2300.814260748111 0.9999996338028354
2300.816561563522 0.9999996422023425
2300.818862381234 0.9999996525003263
2300.8211632012467 0.99999966367509
2300.82346402356 0.999999673794437
2300.8257648481745 0.9999996825875239
2300.8280656750894 0.9999996904149417
2300.8303665043054 0.999999697984256
2300.8326673358224 0.9999997058757284
2300.83496816964 0.9999997135397802
2300.8372690057586 0.9999997200652669
2300.8395698441777 0.9999997226843534
2300.841870684898 0.9999997025285585
2300.844171527919 0.9999996012549646
2300.846472373241 0.9999994252608501
2300.8487732208637 0.9999993958256859
2300.8510740707875 0.9999995687372087
2300.853374923012 0.9999997109310478
2300.855675777537 0.9999997536216406
2300.8579766343632 0.9999997600496009
2300.8602774934902 0.999999764533726
2300.862578354918 0.9999997751468842
2300.8648792186464 0.9999997867600026
2300.867180084676 0.9999997945948822
2300.8694809530066 0.9999997992954437
2300.871781823638 0.9999998020903877
2300.87408269657 0.9999998042726096
2300.8763835718028 0.9999998070751894
2300.878684449337 0.999999808829911
2300.880985329172 0.9999998045952662
2300.883286211307 0.9999997958568813
2300.885587095744 0.9999997959189576
2300.887887982482 0.9999998087708273
2300.8901888715195 0.9999998216868105
2300.892489762859 0.9999998280688882
2300.8947906564986 0.9999998307447385
2300.89709155244 0.9999998320976533
2300.899392450682 0.9999998322592588
2300.901693351225 0.9999998304844696
2300.9039942540685 0.999999825074436
2300.9062951592127 0.9999998023742459
2300.9085960666584 0.9999997259145992
2300.910896976405 0.9999996162979624
2300.9131978884525 0.9999996104680594
2300.915498802801 0.9999997195528268
2300.9177997194497 0.9999998040739411
2300.9201006383996 0.9999998296301338
2300.9224015596506 0.999999833351873
2300.9247024832025 0.9999998328806454
2300.9270034090555 0.9999998314387477
2300.9293043372095 0.9999998295936178
2300.931605267664 0.9999998276503635
2300.9339062004196 0.9999998261948113
2300.9362071354763 0.9999998249312136
2300.938508072834 0.9999998227784948
2300.9408090124925 0.9999998197058504
2300.9431099544518 0.999999816900136
2300.9454108987125 0.9999998145897342
2300.9477118452737 0.9999998113549791
2300.950012794136 0.9999998062679181
2300.9523137452993 0.9999998009230003
2300.9546146987636 0.999999797879329
2300.9569156545285 0.9999997958437883
2300.959216612595 0.9999997922251028
2300.961517572962 0.9999997866168286
2300.96381853563 0.9999997799018615
2300.966119500599 0.9999997747333903
2300.968420467869 0.9999997715986032
2300.97072143744 0.9999997678606937
2300.9730224093114 0.9999997626125335
2300.975323383484 0.9999997565804482
2300.977624359958 0.9999997503690952
2300.9799253387328 0.999999743338335
2300.9822263198084 0.9999997313699447
2300.984527303185 0.9999996900195715
2300.986828288863 0.999999535247796
2300.9891292768416 0.9999992444743134
2300.991430267122 0.9999991201317461
2300.993731259702 0.9999993347138079
2300.9960322545835 0.9999995774410202
2300.9983332517663 0.9999996663571261
2301.00063425125 0.9999996780647596
2301.0029352530346 0.9999996729287263
2301.0052362571205 0.9999996654949102
2301.007537263507 0.9999996580573676
2301.009838272195 0.9999996501064894
2301.0121392831834 0.999999641399794
2301.0144402964734 0.9999996323886347
2301.016741312064 0.9999996231582677
2301.0190423299555 0.9999996133498992
2301.0213433501485 0.999999602256423
2301.023644372642 0.9999995901499816
2301.0259453974368 0.9999995786659119
2301.028246424533 0.9999995645923547
2301.0305474539296 0.9999995341970646
2301.0328484856273 0.9999994732452697
2301.0351495196264 0.99999941587935
2301.0374505559266 0.9999994272014489
2301.0397515945274 0.9999994760446458
2301.0420526354296 0.9999994977197227
2301.0443536786324 0.9999994938647535
2301.0466547241367 0.9999994827771662
2301.048955771942 0.9999994705811472
2301.0512568220483 0.9999994579845632
2301.0535578744552 0.9999994448924918
2301.0558589291636 0.9999994316785691
2301.058159986173 0.9999994184605672
2301.0604610454834 0.9999994047770466
2301.062762107095 0.9999993904241166
2301.0650631710073 0.9999993752649076
2301.067364237221 0.9999993554455336
2301.0696653057357 0.9999993083667095
2301.0719663765517 0.9999991931702172
2301.0742674496682 0.9999990716567049
2301.0765685250863 0.9999990972969935
2301.0788696028053 0.9999992049193261
2301.0811706828254 0.9999992535311094
2301.0834717651464 0.9999992516125114
2301.085772849769 0.9999992357998071
2301.088073936692 0.9999992131503215
2301.0903750259167 0.9999991574299051
2301.092676117442 0.9999989417610416
2301.0949772112685 0.999998455925067
2301.097278307396 0.9999981543857044
2301.0995794058254 0.9999984646815037
2301.101880506555 0.9999989022727291
2301.104181609586 0.9999990596570578
2301.106482714918 0.9999990690317534
2301.1087838225512 0.9999990451334393
2301.1110849324855 0.9999990124585584
2301.1133860447208 0.9999989900398921
2301.1156871592575 0.9999989845704261
2301.117988276095 0.9999989777776602
2301.1202893952336 0.9999989615745772
2301.1225905166734 0.999998941203748
2301.1248916404143 0.9999989199343751
2301.1271927664566 0.9999988976592094
2301.1294938948 0.999998874137066
2301.131795025444 0.999998848693556
2301.1340961583896 0.9999988083410554
2301.136397293636 0.9999986748960246
2301.138698431184 0.9999982886810017
2301.140999571033 0.9999978324723032
2301.1433007131827 0.9999978676591973
2301.145601857634 0.9999982937104892
2301.1479030043865 0.999998471455059
2301.15020415344 0.9999980994786252
2301.1525053047944 0.999997334691588
2301.1548064584504 0.9999969930172016
2301.1571076144073 0.9999975237840842
2301.1594087726653 0.9999982175321451
2301.1617099332248 0.9999984722688974
2301.1640110960852 0.9999984945237682
2301.1663122612467 0.9999984739826536
2301.1686134287093 0.9999984477678526
2301.1709145984732 0.9999984197732583
2301.1732157705383 0.9999983905848864
2301.1755169449048 0.9999983604258272
2301.1778181215723 0.9999983291045383
2301.180119300541 0.9999982967517236
2301.182420481811 0.9999982648392274
2301.1847216653814 0.9999982334513967
2301.187022851254 0.9999982009165498
2301.189324039427 0.9999981666424388
2301.1916252299015 0.9999981298876092
2301.1939264226776 0.9999980798432616
2301.1962276177546 0.9999979800131762
2301.1985288151327 0.9999978277545877
2301.200830014812 0.9999977556806778
2301.2031312167924 0.9999978178281306
2301.205432421074 0.9999978735599443
2301.207733627657 0.9999978647070683
2301.210034836541 0.9999978280818691
2301.2123360477262 0.9999977828095461
2301.214637261213 0.9999977302623249
2301.2169384770004 0.9999976792290406
2301.2192396950895 0.9999976399152535
2301.2215409154796 0.999997603061002
