Atmospheric Species: CO
Metallicity: 1000
C/O_Ratio: 1.5
Wavelength[nm] Flux_variation
1199.9994359108223 0.999999996798212
1200.0006359108581 0.9999999971457375
1200.001835912094 0.9999999974731963
1200.0030359145298 0.9999999977804488
1200.0042359181657 0.9999999980677128
1200.0054359230016 0.9999999983349555
1200.0066359290374 0.999999998582255
1200.0078359362733 0.9999999988095968
1200.0090359447092 0.9999999990169981
1200.010235954345 0.9999999992045159
1200.011435965181 0.9999999993721319
1200.0126359772169 0.9999999995199501
1200.013835990453 0.99999999964792
1200.015036004889 0.9999999997561505
1200.0162360205247 0.9999999998443353
1200.0174360373605 0.99999999991302
1200.0186360553967 0.9999999999617152
1200.0198360746326 0.9999999999907613
1200.021036095069 1.0
1200.0222361167048 0.9999999999894962
1200.023436139541 0.9999999999590207
1200.024636163577 0.9999999999089002
1200.0258361888132 0.9999999998389404
1200.0270362152494 0.9999999997491681
1200.0282362428854 0.9999999996396063
1200.0294362717216 0.9999999995142986
1200.030636301758 0.9999999993674095
1200.031836332994 0.9999999992006892
1200.0330363654305 0.9999999990140455
1200.034236399067 0.9999999988074062
1200.0354364339032 0.9999999985807965
1200.0366364699396 0.9999999983340525
1200.037836507176 0.9999999980672903
1200.0390365456126 0.9999999977804982
1200.040236585249 0.999999997473579
1200.0414366260857 0.9999999971464377
1200.0426366681224 0.9999999967990593
1200.043836711359 0.9999999964314421
1200.0450367557955 0.9999999960434163
1200.0462368014323 0.9999999956349557
1200.0474368482692 0.9999999952061392
1200.048636896306 0.9999999947572226
1200.049836945543 0.9999999942881087
1200.0510369959798 0.9999999937983113
1200.0522370476167 0.9999999932878061
1200.0534371004537 0.9999999927564641
1200.0546371544908 0.9999999922043018
1200.055837209728 0.9999999916311051
1200.0570372661653 0.9999999910367897
1200.0582373238024 0.9999999904215406
1200.0594373826398 0.9999999897849655
1200.060637442677 0.9999999891270124
1200.0618375039146 0.9999999884476696
1200.063037566352 0.9999999877467803
1200.0642376299897 0.9999999870242963
1200.0654376948273 0.9999999862800365
1200.066637760865 0.999999985513945
1200.0678378281027 0.9999999847258342
1200.0690378965403 0.9999999839157668
1200.0702379661784 0.9999999830834282
1200.0714380370162 0.9999999822287623
1200.0726381090542 0.999999981351664
1200.0738381822923 0.999999980452029
1200.0750382567305 0.9999999795295857
1200.0762383323686 0.9999999785843652
1200.077438409207 0.9999999776160884
1200.0786384872454 0.9999999766246913
1200.0798385664839 0.9999999756099904
1200.0810386469223 0.9999999745718369
1200.082238728561 0.9999999735101375
1200.0834388113997 0.9999999724245537
1200.0846388954385 0.9999999713151324
1200.0858389806772 0.9999999701814906
1200.0870390671162 0.999999969023699
1200.0882391547552 0.9999999678414372
1200.0894392435946 0.9999999666345047
1200.0906393336338 0.9999999654027361
1200.0918394248731 0.9999999641460173
1200.0930395173125 0.9999999628640812
1200.0942396109522 0.9999999615566412
1200.0954397057917 0.9999999602237017
1200.0966398018313 0.9999999588648002
1200.097839899071 0.9999999574799806
1200.099039997511 0.9999999560688667
1200.100240097151 0.9999999546312522
1200.1014401979912 0.9999999531670949
1200.1026403000312 0.9999999516758354
1200.1038404032715 0.9999999501574846
1200.1050405077121 0.9999999486117115
1200.1062406133526 0.9999999470382213
1200.1074407201932 0.9999999454368398
1200.108640828234 0.9999999438073243
1200.1098409374747 0.9999999421493078
1200.1110410479157 0.9999999404626114
1200.1122411595568 0.9999999387469511
1200.113441272398 0.9999999370020202
1200.1146413864392 0.999999935227534
1200.1158415016805 0.999999933423202
1200.1170416181221 0.9999999315886868
1200.1182417357636 0.9999999297238079
1200.1194418546054 0.9999999278282042
1200.1206419746472 0.9999999259014545
1200.1218420958892 0.9999999239432312
1200.1230422183314 0.9999999219534134
1200.1242423419737 0.9999999199314121
1200.125442466816 0.9999999178770789
1200.1266425928584 0.99999991579002
1200.1278427201012 0.9999999136698087
1200.1290428485438 0.9999999115160655
1200.1302429781867 0.9999999093285098
1200.1314431090298 0.99999990710674
1200.1326432410729 0.9999999048502303
1200.133843374316 0.9999999025588938
1200.1350435087595 0.9999999002319563
1200.136243644403 0.999999897869322
1200.1374437812467 0.9999998954704067
1200.1386439192906 0.9999998930347027
1200.1398440585344 0.9999998905619983
1200.1410441989785 0.9999998880516253
1200.1422443406227 0.9999998855033062
1200.1434444834672 0.999999882916562
1200.1446446275115 0.9999998802907792
1200.1458447727564 0.9999998776255445
1200.147044919201 0.9999998749204544
1200.1482450668461 0.9999998721749003
1200.149445215691 0.9999998693884924
1200.1506453657364 0.9999998665605402
1200.1518455169817 0.99999986369053
1200.1530456694272 0.9999998607780308
1200.154245823073 0.9999998578224744
1200.1554459779188 0.9999998548232321
1200.1566461339648 0.999999851780669
1200.157846291211 0.9999998486945757
1200.1590464496574 0.9999998455630141
1200.1602466093038 0.9999998423854094
1200.1614467701506 0.9999998391611167
1200.1626469321973 0.9999998358895426
1200.1638470954442 0.9999998325700554
1200.1650472598915 0.9999998292020611
1200.1662474255388 0.9999998257844744
1200.1674475923862 0.9999998223171929
1200.1686477604337 0.9999998187990397
1200.1698479296817 0.9999998152294883
1200.1710481001296 0.9999998116079162
1200.1722482717778 0.9999998079333756
1200.173448444626 0.9999998042052446
1200.1746486186746 0.999999800422513
1200.1758487939233 0.9999997965846664
1200.177048970372 0.9999997926908192
1200.178249148021 0.999999788740054
1200.17944932687 0.9999997847314472
1200.1806495069195 0.9999997806643739
1200.181849688169 0.9999997765377575
1200.1830498706188 0.9999997723507091
1200.184250054269 0.9999997681024098
1200.1854502391188 0.9999997637919743
1200.186650425169 0.9999997594181678
1200.1878506124197 0.9999997549802976
1200.1890508008703 0.9999997504772196
1200.1902509905212 0.9999997459078944
1200.1914511813723 0.9999997412713232
1200.1926513734234 0.99999973656644
1200.1938515666748 0.9999997317920186
1200.1950517611263 0.9999997269471699
1200.1962519567783 0.9999997220306829
1200.1974521536301 0.9999997170413077
1200.1986523516825 0.9999997119777789
1200.1998525509348 0.9999997068392201
1200.2010527513876 0.9999997016241031
1200.2022529530402 0.9999996963313024
1200.2034531558932 0.9999996909594606
1200.2046533599464 0.9999996855071207
1200.2058535651997 0.9999996799730833
1200.2070537716534 0.9999996743561096
1200.2082539793073 0.9999996686544419
1200.2094541881613 0.999999662866755
1200.2106543982154 0.9999996569917369
1200.2118546094698 0.9999996510276697
1200.2130548219245 0.9999996449732074
1200.2142550355793 0.9999996388263586
1200.2154552504344 0.9999996325860186
1200.2166554664896 0.9999996262503483
1200.2178556837453 0.9999996198175248
1200.219055902201 0.9999996132858054
1200.220256121857 0.9999996066535654
1200.221456342713 0.9999995999189343
1200.2226565647693 0.9999995930801063
1200.223856788026 0.9999995861349512
1200.225057012483 0.9999995790818356
1200.22625723814 0.9999995719186678
1200.2274574649973 0.9999995646431893
1200.2286576930549 0.9999995572537077
1200.2298579223127 0.9999995497477238
1200.2310581527706 0.9999995421233302
1200.2322583844289 0.9999995343779249
1200.2334586172874 0.9999995255120666
1200.234658851346 0.9999995164055652
1200.235859086605 0.9999995071929948
1200.2370593230642 0.9999994978705007
1200.2382595607235 0.9999994884362737
1200.239459799583 0.9999994788872778
1200.240660039643 0.9999994692208218
1200.2418602809032 0.9999994594338696
1200.2430605233635 0.9999994495238099
1200.2442607670241 0.9999994394875688
1200.245461011885 0.9999994293217412
1200.2466612579462 0.9999994190236265
1200.2478615052075 0.9999994085897852
1200.249061753669 0.9999993980170887
1200.2502620033308 0.9999993873021135
1200.251462254193 0.9999993764415119
1200.252662506255 0.9999993654314168
1200.253862759518 0.9999993542685701
1200.2550630139808 0.9999993429492217
1200.2562632696438 0.9999993314696902
1200.257463526507 0.9999993198260109
1200.2586637845707 0.9999993080140678
1200.2598640438346 0.9999992960296608
1200.2610643042988 0.9999992838692379
1200.262264565963 0.9999992715281673
1200.2634648288276 0.9999992590016119
1200.2646650928928 0.9999992462859156
1200.265865358158 0.9999992333759837
1200.2670656246232 0.9999992202673457
1200.268265892289 0.9999992069544488
1200.269466161155 0.9999991934330267
1200.2706664312213 0.9999991796978054
1200.2718667024878 0.9999991657432399
1200.2730669749546 0.9999991515642946
1200.2742672486218 0.999999137155364
1200.275467523489 0.9999991225103334
1200.2766677995567 0.9999991076238389
1200.2778680768245 0.9999990924897949
1200.2790683552926 0.9999990771016313
1200.280268634961 0.9999990614533683
1200.2814689158297 0.9999990455382521
1200.2826691978987 0.9999990293499748
1200.283869481168 0.9999990128808532
1200.2850697656377 0.999998996124722
1200.2862700513074 0.9999989790735917
1200.2874703381776 0.9999989617200659
1200.288670626248 0.9999989440566228
1200.2898709155188 0.9999989260752563
1200.2910712059897 0.9999989077675284
1200.2922714976612 0.999998889125008
1200.2934717905325 0.999998870139581
1200.2946720846046 0.9999988508013479
1200.2958723798768 0.9999988311016084
1200.2970726763492 0.9999988110313098
1200.298272974022 0.9999987905794167
1200.299473272895 0.9999987697370781
1200.3006735729684 0.9999987484932946
1200.3018738742421 0.9999987268375066
1200.303074176716 0.9999987047585273
1200.3042744803904 0.9999986822452883
1200.305474785265 0.9999986592854627
1200.3066750913397 0.9999986358674811
1200.307875398615 0.9999986119742501
1200.3090757070904 0.9999985875802272
1200.3102760167665 0.9999985626719873
1200.3114763276424 0.999998537236002
1200.3126766397188 0.9999985112578469
1200.3138769529955 0.9999984847226306
1200.3150772674728 0.9999984576153753
1200.3162775831502 0.9999984299204324
1200.3174779000278 0.9999984016213727
1200.3186782181058 0.9999983727018938
1200.3198785373843 0.9999983431441593
1200.3210788578629 0.9999983129306245
1200.3222791795417 0.9999982820429552
1200.323479502421 0.9999982504614938
1200.3246798265006 0.9999982181661268
1200.3258801517807 0.9999981851368283
1200.327080478261 0.9999981513527358
1200.3282808059414 0.9999981167911132
1200.3294811348223 0.9999980814298247
1200.3306814649036 0.9999980452446131
1200.3318817961851 0.999998008211683
1200.3330821286672 0.9999979703053803
1200.3342824623494 0.9999979314997257
1200.335482797232 0.9999978917672989
1200.336683133315 0.9999978510796285
1200.3378834705984 0.999997809407866
1200.3390838090818 0.9999977667219894
1200.3402841487657 0.9999977229898296
1200.34148448965 0.9999976781792074
1200.3426848317345 0.9999976322561399
1200.3438851750195 0.9999975851858471
1200.3450855195047 0.9999975369310193
1200.3462858651903 0.9999974874541381
1200.3474862120763 0.9999974367153385
1200.3486865601626 0.9999973846741194
1200.3498869094492 0.9999973312872837
1200.3510872599363 0.9999972765102625
1200.3522876116235 0.9999972202978666
1200.3534879645113 0.9999971626004951
1200.3546883185993 0.999997103370131
1200.3558886738876 0.9999970425524098
1200.3570890303765 0.9999969800951817
1200.3582893880655 0.9999969159394095
1200.3594897469552 0.9999968500274812
1200.3606901070452 0.9999967822980534
1200.3618904683356 0.9999967126860143
1200.363090830826 0.9999966411250539
1200.3642911945171 0.9999965675435718
1200.3654915594084 0.9999964918694549
1200.3666919255 0.9999964140261179
1200.367892292792 0.9999963339334356
1200.3690926612844 0.9999962515078177
1200.3702930309773 0.999996166659722
1200.3714934018706 0.999996079298889
1200.372693773964 0.9999959893283026
1200.373894147258 0.9999958966464535
1200.3750945217523 0.9999958011475873
1200.376294897447 0.9999957027212109
1200.377495274342 0.9999956012479181
1200.3786956524375 0.9999954966057512
1200.379896031733 0.9999953886647635
1200.3810964122295 0.9999952772880782
1200.382296793926 0.999995162333251
1200.3834971768229 0.9999950436452606
1200.3846975609201 0.999994921066533
1200.385897946218 0.9999947944252687
1200.387098332716 0.9999946635430765
1200.3882987204145 0.9999945282305943
1200.3894991093134 0.9999943882852317
1200.3906994994124 0.9999942434931054
1200.3918998907125 0.9999940936281266
1200.3931002832123 0.9999939384471842
1200.3943006769127 0.9999937776952257
1200.3955010718137 0.9999936110957268
1200.396701467915 0.9999934383574954
1200.3979018652165 0.9999932591673714
1200.3991022637185 0.9999930731914541
1200.400302663421 0.9999928800691968
1200.4015030643238 0.9999926794174385
1200.402703466427 0.9999924708223419
1200.4039038697306 0.9999922538384045
1200.4051042742346 0.9999920279887943
1200.406304679939 0.9999917926088506
1200.407505086844 0.9999915474184013
1200.4087054949491 0.9999912916829027
1200.4099059042549 0.9999910247492864
1200.411106314761 0.9999907458996256
1200.4123067264675 0.9999904543906345
1200.4135071393741 0.9999901492668724
1200.4147075534815 0.9999898298439261
1200.4159079687893 0.999989495040277
1200.4171083852973 0.9999891438012531
1200.4183088030059 0.9999887749783086
1200.419509221915 0.9999883873369946
1200.4207096420243 0.9999879795319329
1200.421910063334 0.9999875501205213
1200.4231104858443 0.9999870975582934
1200.4243109095548 0.9999866201928321
1200.4255113344661 0.9999861162658467
1200.4267117605775 0.9999855839257871
1200.4279121878894 0.9999850212272352
1200.4291126164019 0.9999844261526148
1200.4303130461146 0.9999837966176053
1200.431513477028 0.9999831304945012
1200.4327139091415 0.9999824255998417
1200.4339143424556 0.9999816796581783
1200.43511477697 0.9999808902665374
1200.436315212685 0.9999800547094678
1200.4375156496003 0.9999791697300389
1200.4387160877163 0.9999782308337255
1200.4399165270324 0.9999772325111623
1200.4411169675493 0.999976166205544
1200.4423174092665 0.9999750192669361
1200.4435178521837 0.9999737709332299
1200.444718296302 0.999972376381976
1200.4459187416205 0.9999707156549903
1200.4471191881394 0.9999684930905608
1200.4483196358588 0.9999653078101842
1200.4495200847784 0.9999611233769693
1200.450720534899 0.9999562756705414
1200.4519209862194 0.9999518188552078
1200.4531214387407 0.9999491246149399
1200.4543218924623 0.999948815377992
1200.4555223473844 0.9999509479419793
1200.4567228035069 0.9999550706627107
1200.4579232608298 0.9999599595552902
1200.4591237193533 0.9999643525806737
1200.4603241790771 0.9999678030462764
1200.4615246400015 0.9999702324427326
1200.4627251021263 0.9999719964167499
1200.4639255654517 0.9999734409263843
1200.4651260299775 0.9999747197734838
1200.4663264957037 0.9999758893568048
1200.4675269626302 0.9999769743530693
1200.4687274307573 0.9999779886395856
1200.469927900085 0.9999789417137679
1200.471128370613 0.9999798395711706
1200.4723288423418 0.9999806870605953
1200.4735293152708 0.9999814876448244
1200.4747297894003 0.9999822441420436
1200.4759302647303 0.9999829590222505
1200.477130741261 0.9999836345637017
1200.4783312189918 0.9999842729846512
1200.4795316979232 0.9999848764264012
1200.480732178055 0.999985446978883
1200.4819326593872 0.9999859866823677
1200.48313314192 0.9999864974970941
1200.4843336256533 0.9999869812993922
1200.4855341105872 0.9999874398747697
1200.4867345967214 0.999987874897936
1200.487935084056 0.9999882879436441
1200.4891355725915 0.9999886804804521
1200.4903360623273 0.9999890538704501
1200.4915365532636 0.9999894093833896
1200.4927370454004 0.9999897481798588
1200.4939375387376 0.9999900713479241
1200.4951380332755 0.9999903799833191
1200.4963385290137 0.9999906747850205
1200.4975390259524 0.9999909567253329
1200.4987395240917 0.9999912265682785
1200.4999400234312 0.9999914850432754
1200.5011405239716 0.9999917328179091
1200.5023410257122 0.9999919706381101
1200.5035415286536 0.9999921987920727
1200.5047420327953 0.9999924179560393
1200.5059425381376 0.999992628614997
1200.5071430446803 0.9999928312246932
1200.5083435524236 0.999993026204054
1200.5095440613673 0.9999932139462485
1200.5107445715116 0.9999933948159674
1200.5119450828565 0.9999935691523252
1200.5131455954017 0.9999937372763433
1200.5143461091475 0.9999938994816359
1200.5155466240938 0.9999940560489283
1200.5167471402408 0.9999942072394177
1200.5179476575881 0.9999943532989178
1200.5191481761358 0.9999944944573704
1200.5203486958844 0.9999946309314359
1200.5215492168331 0.9999947629251073
1200.5227497389826 0.9999948906329477
1200.5239502623326 0.9999950142358813
1200.5251507868832 0.999995133905698
1200.526351312634 0.9999952498055786
1200.5275518395856 0.9999953620887003
1200.5287523677375 0.9999954709025293
1200.5299528970902 0.9999955763847271
1200.5311534276432 0.9999956786661811
1200.532353959397 0.9999957778725459
1200.5335544923512 0.9999958741216347
1200.534755026506 0.999995967526771
1200.535955561861 0.9999960581961465
1200.537156098417 0.9999961462305911
1200.5383566361734 0.9999962317285237
1200.53955717513 0.9999963147835162
1200.5407577152876 0.99999639548411
1200.5419582566456 0.9999964739140622
1200.5431587992039 0.999996550156212
1200.544359342963 0.9999966242865812
1200.5455598879225 0.9999966963799224
1200.5467604340827 0.9999967665068752
1200.5479609814433 0.9999968347352098
1200.5491615300048 0.9999969011306002
1200.5503620797663 0.9999969657545476
1200.5515626307288 0.9999970286666654
1200.5527631828916 0.9999970899249236
1200.553963736255 0.999997149583952
1200.5551642908188 0.9999972076960868
1200.5563648465834 0.9999972643117977
1200.5575654035486 0.9999973194801505
1200.5587659617142 0.9999973732480484
1200.5599665210802 0.9999974256599659
1200.561167081647 0.9999974767581883
1200.5623676434145 0.9999975265852562
1200.5635682063823 0.9999975751808661
1200.5647687705507 0.9999976225830446
1200.5659693359198 0.9999976688283224
1200.5671699024892 0.9999977139533822
1200.5683704702594 0.9999977579918854
1200.5695710392304 0.9999978009768631
1200.5707716094014 0.9999978429393052
1200.5719721807734 0.9999978839108343
1200.5731727533457 0.9999979239208958
1200.5743733271188 0.999997962996937
1200.5755739020922 0.999998001167148
1200.5767744782663 0.9999980384583534
1200.577975055641 0.999998074895171
1200.5791756342164 0.9999981105030661
1200.5803762139922 0.9999981453049782
1200.5815767949687 0.9999981793250675
1200.5827773771457 0.9999982125840526
1200.5839779605233 0.9999982451044048
1200.5851785451016 0.9999982769064121
1200.5863791308805 0.9999983080100265
1200.5875797178599 0.9999983384344294
1200.5887803060398 0.9999983681995962
1200.5899808954202 0.9999983973216464
1200.5911814860015 0.9999984258190848
1200.5923820777832 0.9999984537093727
1200.5935826707655 0.9999984810071599
1200.5947832649483 0.9999985077300069
1200.595983860332 0.9999985338922593
1200.597184456916 0.9999985595090727
1200.5983850547007 0.9999985845945027
1200.599585653686 0.9999986091628329
1200.600786253872 0.9999986332269398
1200.6019868552585 0.9999986568006303
1200.6031874578455 0.9999986798963528
1200.6043880616332 0.999998702525257
1200.6055886666215 0.9999987247005058
1200.6067892728104 0.9999987464331139
1200.6079898802 0.9999987677344792
1200.60919048879 0.999998788614667
1200.6103910985807 0.9999988090848047
1200.6115917095722 0.9999988291550673
1200.6127923217643 0.9999988488351064
1200.6139929351568 0.9999988681341201
1200.61519354975 0.9999988870620727
1200.6163941655439 0.9999989056279517
1200.6175947825384 0.999998923839408
1200.6187954007335 0.9999989417060853
1200.6199960201293 0.9999989592358471
1200.6211966407254 0.9999989764366056
1200.6223972625226 0.9999989933160726
1200.62359788552 0.9999990098821558
1200.6247985097182 0.999999026142072
1200.625999135117 0.9999990421036586
1200.6271997617164 0.9999990577727175
1200.6284003895164 0.9999990731563723
1200.6296010185172 0.999999088260827
1200.6308016487183 0.9999991030926975
1200.6320022801203 0.9999991176580978
1200.6332029127227 0.9999991319630412
