Atmospheric Species: CO
Metallicity: 100
C/O_Ratio: 1.0
Wavelength[nm] Flux_variation
1799.9989592438712 1.0
1800.0007592437303 0.9999999996154343
1800.0025592453896 0.9999999991088585
1800.004359248849 0.9999999984710078
1800.0061592541078 0.9999999977979832
1800.0079592611673 0.9999999972823105
1800.0097592700265 0.9999999970777892
1800.0115592806853 0.9999999971593392
1800.0133592931445 0.9999999973471929
1800.015159307404 0.9999999974643604
1800.0169593234634 0.9999999974449283
1800.0187593413225 0.9999999973145415
1800.0205593609817 0.9999999971223782
1800.022359382441 0.9999999969026133
1800.0241594057002 0.9999999966713461
1800.0259594307595 0.9999999964348176
1800.0277594576187 0.9999999961954266
1800.0295594862782 0.9999999959542522
1800.0313595167377 0.9999999957118821
1800.0331595489968 0.9999999954686822
1800.034959583057 0.9999999952248938
1800.0367596189162 0.9999999949806782
1800.0385596565757 0.9999999947361354
1800.0403596960355 0.9999999944913298
1800.0421597372952 0.9999999942463093
1800.043959780355 0.9999999940011168
1800.0457598252146 0.9999999937557895
1800.0475598718742 0.9999999935103553
1800.0493599203348 0.9999999932648326
1800.0511599705944 0.9999999930192333
1800.0529600226544 0.9999999927735673
1800.0547600765144 0.9999999925278444
1800.0565601321746 0.9999999922820719
1800.0583601896344 0.9999999920362562
1800.060160248895 0.999999991790401
1800.061960309955 0.9999999915445084
1800.0637603728153 0.999999991298578
1800.0655604374756 0.9999999910526046
1800.067360503936 0.999999990806571
1800.0691605721963 0.9999999905604243
1800.070960642257 0.9999999903140385
1800.0727607141173 0.9999999900672044
1800.074560787778 0.999999989819763
1800.0763608632387 0.9999999895719135
1800.0781609404996 0.9999999893243852
1800.0799610195606 0.9999999890780261
1800.0817611004218 0.9999999888330451
1800.0835611830826 0.9999999885888038
1800.085361267544 0.9999999883444353
1800.0871613538052 0.9999999880994968
1800.088961441866 0.9999999878540268
1800.0907615317276 0.999999987608238
1800.0925616233892 0.9999999873622971
1800.094361716851 0.9999999871162866
1800.0961618121128 0.9999999868702389
1800.0979619091743 0.999999986624167
1800.0997620080361 0.9999999863780752
1800.1015621086983 0.9999999861319647
1800.1033622111604 0.9999999858858323
1800.1051623154226 0.9999999856396686
1800.1069624214847 0.9999999853934565
1800.1087625293474 0.9999999851471781
1800.11056263901 0.9999999849008375
1800.1123627504724 0.9999999846544784
1800.1141628637351 0.9999999844081594
1800.115962978798 0.9999999841618933
1800.117763095661 0.999999983915608
1800.1195632143244 0.9999999836691562
1800.121363334787 0.9999999834222919
1800.1231634570509 0.9999999831745124
1800.1249635811143 0.9999999829248739
1800.1267637069775 0.999999982672273
1800.1285638346415 0.9999999824167025
1800.1303639641053 0.9999999821607799
1800.1321640953695 0.9999999819091738
1800.1339642284333 0.9999999816650799
1800.1357643632975 0.9999999814271978
1800.137564499962 0.9999999811910016
1800.1393646384263 0.999999980952652
1800.1411647786908 0.9999999807110792
1800.1429649207557 0.9999999804670993
1800.1447650646205 0.9999999802218236
1800.1465652102856 0.9999999799759379
1800.148365357751 0.9999999797297309
1800.1501655070163 0.9999999794832878
1800.1519656580817 0.9999999792366068
1800.1537658109473 0.9999999789896301
1800.1555659656133 0.9999999787422293
1800.1573661220793 0.9999999784941187
1800.1591662803455 0.9999999782445612
1800.160966440412 0.9999999779915644
1800.1627666022782 0.9999999777304428
1800.164566765945 0.9999999774532371
1800.1663669314116 0.9999999771531863
1800.1681670986784 0.9999999768361134
1800.1699672677457 0.9999999765284298
1800.1717674386132 0.9999999762637662
1800.1735676112805 0.9999999760537384
1800.1753677857482 0.9999999758763342
1800.177167962016 0.999999975697345
1800.1789681400837 0.9999999754971658
1800.180768319952 0.9999999752756916
1800.1825685016202 0.9999999750410874
1800.1843686850887 0.9999999748003466
1800.1861688703573 0.999999974557075
1800.187969057426 0.9999999743127085
1800.1897692462953 0.9999999740677811
1800.1915694369645 0.9999999738225173
1800.1933696294338 0.9999999735770323
1800.1951698237037 0.9999999733313945
1800.1969700197737 0.9999999730856466
1800.1987702176436 0.9999999728398175
1800.200570417314 0.999999972593927
1800.2023706187845 0.9999999723479891
1800.204170822055 0.9999999721020137
1800.2059710271258 0.9999999718560084
1800.207771233997 0.9999999716099786
1800.2095714426682 0.9999999713639285
1800.2113716531396 0.9999999711178614
1800.2131718654114 0.9999999708717798
1800.2149720794832 0.9999999706256858
1800.2167722953552 0.9999999703795809
1800.2185725130275 0.9999999701334662
1800.2203727324998 0.9999999698873426
1800.222172953773 0.9999999696412112
1800.223973176846 0.9999999693950722
1800.2257734017192 0.9999999691489262
1800.2275736283925 0.9999999689027734
1800.2293738568665 0.9999999686566141
1800.2311740871405 0.9999999684104482
1800.2329743192142 0.9999999681642758
1800.2347745530888 0.9999999679180966
1800.236574788763 0.9999999676719106
1800.2383750262381 0.9999999674257171
1800.2401752655132 0.9999999671795157
1800.2419755065885 0.9999999669333058
1800.2437757494642 0.9999999666870865
1800.2455759941402 0.9999999664408568
1800.247376240616 0.9999999661946153
1800.249176488892 0.9999999659483603
1800.2509767389686 0.99999996570209
1800.2527769908456 0.9999999654558017
1800.2545772445226 0.9999999652094923
1800.2563775 0.9999999649631577
1800.2581777572773 0.9999999647167926
1800.259978016355 0.9999999644703905
1800.2617782772334 0.9999999642239426
1800.2635785399118 0.999999963977437
1800.2653788043906 0.9999999637308579
1800.267179070669 0.9999999634841835
1800.2689793387483 0.9999999632373828
1800.2707796086277 0.9999999629904112
1800.2725798803074 0.9999999627432017
1800.2743801537872 0.9999999624956486
1800.2761804290674 0.999999962247569
1800.277980706148 0.9999999619985874
1800.2797809850285 0.9999999617477761
1800.2815812657095 0.9999999614927337
1800.283381548191 0.999999961228079
1800.285181832473 0.9999999609451162
1800.2869821185548 0.9999999606369441
1800.2887824064367 0.9999999603102729
1800.2905826961191 0.9999999599932717
1800.2923829876015 0.9999999597221305
1800.2941832808851 0.9999999595115322
1800.2959835759682 0.9999999593408061
1800.297783872852 0.999999959173136
1800.299584171536 0.9999999589840646
1800.3013844720203 0.9999999587703507
1800.3031847743046 0.9999999585399967
1800.3049850783898 0.999999958301347
1800.3067853842754 0.9999999580592571
1800.3085856919608 0.9999999578157981
1800.3103860014467 0.9999999575716596
1800.3121863127326 0.9999999573270253
1800.3139866258189 0.9999999570819716
1800.3157869407053 0.9999999568365733
1800.3175872573925 0.9999999565908705
1800.3193875758795 0.9999999563448172
1800.3211878961672 0.9999999560982998
1800.322988218255 0.9999999558512975
1800.324788542143 0.9999999556041206
1800.326588867832 0.9999999553574014
1800.328389195321 0.9999999551116263
1800.3301895246102 0.9999999548666645
1800.3319898557002 0.9999999546219115
1800.3337901885902 0.9999999543768507
1800.3355905232806 0.9999999541313526
1800.3373908597714 0.9999999538855393
1800.3391911980623 0.9999999536395623
1800.3409915381535 0.9999999533935117
1800.342791880045 0.9999999531474257
1800.344592223737 0.9999999529013195
1800.3463925692295 0.999999952655199
1800.3481929165218 0.9999999524090679
1800.3499932656148 0.9999999521629284
1800.3517936165083 0.9999999519167815
1800.353593969202 0.9999999516706288
1800.355394323696 0.999999951424471
1800.3571946799907 0.9999999511783084
1800.3589950380854 0.999999950932142
1800.3607953979806 0.999999950685972
1800.362595759676 0.9999999504397991
1800.364396123172 0.999999950193623
1800.3661964884682 0.9999999499474442
1800.3679968555648 0.999999949701263
1800.3697972244618 0.9999999494550795
1800.371597595159 0.999999949208894
1800.3733979676567 0.9999999489627065
1800.375198341955 0.9999999487165171
1800.3769987180535 0.9999999484703261
1800.3787990959522 0.9999999482241334
1800.3805994756517 0.9999999479779392
1800.3823998571509 0.9999999477317435
1800.3842002404513 0.9999999474855463
1800.3860006255513 0.9999999472393479
1800.387801012452 0.9999999469931482
1800.3896014011536 0.9999999467469473
1800.391401791655 0.999999946500745
1800.3932021839566 0.9999999462545417
1800.395002578059 0.9999999460083371
1800.3968029739617 0.9999999457621316
1800.3986033716649 0.9999999455159249
1800.4004037711682 0.9999999452697171
1800.4022041724722 0.9999999450235083
1800.4040045755767 0.9999999447772986
1800.4058049804812 0.9999999445310878
1800.4076053871865 0.9999999442848759
1800.4094057956918 0.9999999440386631
1800.4112062059978 0.9999999437924493
1800.4130066181044 0.9999999435462343
1800.4148070320111 0.9999999433000184
1800.4166074477182 0.9999999430538014
1800.4184078652256 0.9999999428075831
1800.4202082845338 0.9999999425613637
1800.4220087056424 0.9999999423151431
1800.423809128551 0.9999999420689208
1800.42560955326 0.999999941822697
1800.4274099797701 0.9999999415764711
1800.4292104080803 0.9999999413302428
1800.4310108381903 0.9999999410840114
1800.4328112701016 0.9999999408377752
1800.4346117038128 0.9999999405915316
1800.436412139325 0.9999999403452743
1800.4382125766372 0.9999999400989884
1800.4400130157503 0.9999999398526411
1800.4418134566633 0.9999999396061717
1800.4436138993767 0.9999999393595008
1800.445414343891 0.9999999391126009
1800.4472147902052 0.9999999388656138
1800.4490152383203 0.9999999386188702
1800.4508156882355 0.9999999383726704
1800.4526161399515 0.9999999381270058
1800.4544165934676 0.9999999378815597
1800.4562170487843 0.999999937635996
1800.4580175059016 0.9999999373901814
1800.4598179648192 0.9999999371441598
1800.4616184255372 0.9999999368980228
1800.463418888056 0.9999999366518344
1800.4652193523748 0.9999999364056239
1800.4670198184942 0.999999936159403
1800.468820286414 0.9999999359131753
1800.4706207561348 0.9999999356669428
1800.4724212276558 0.9999999354207059
1800.474221700977 0.9999999351744643
1800.476022176099 0.9999999349282156
1800.4778226530211 0.9999999346819528
1800.4796231317441 0.9999999344356603
1800.4814236122677 0.9999999341893121
1800.483224094591 0.9999999339428906
1800.4850245787152 0.9999999336964213
1800.4868250646402 0.9999999334499924
1800.4886255523654 0.9999999332037057
1800.4904260418912 0.9999999329575875
1800.4922265332175 0.9999999327115627
1800.4940270263437 0.9999999324655261
1800.4958275212716 0.9999999322194209
1800.497628017999 0.9999999319732488
1800.4994285165271 0.9999999317270358
1800.5012290168559 0.9999999314808029
1800.5030295189854 0.9999999312345613
1800.5048300229146 0.9999999309884279
1800.5066305286448 0.9999999307424741
1800.5084310361756 0.9999999304965179
1800.510231545507 0.9999999302505596
1800.5120320566386 0.9999999300045997
1800.5138325695712 0.9999999297586386
1800.5156330843038 0.9999999295126767
1800.517433600837 0.9999999292667137
1800.519234119171 0.999999929020749
1800.521034639305 0.9999999287747808
1800.52283516124 0.9999999285288085
1800.5246356849752 0.999999928282833
1800.5264362105113 0.9999999280368572
1800.5282367378475 0.999999927790885
1800.530037266984 0.9999999275449181
1800.5318377979218 0.9999999272989535
1800.5336383306599 0.9999999270529877
1800.5354388651986 0.999999926807018
1800.5372394015374 0.9999999265610443
1800.539039939677 0.9999999263150673
1800.5408404796171 0.9999999260690878
1800.5426410213581 0.9999999258231062
1800.544441564899 0.9999999255771225
1800.5462421102409 0.9999999253311366
1800.5480426573831 0.9999999250851483
1800.549843206326 0.9999999248391576
1800.5516437570698 0.9999999245931641
1800.5534443096133 0.9999999243471674
1800.555244863958 0.9999999241011672
1800.5570454201031 0.9999999238551629
1800.5588459780488 0.9999999236091541
1800.5606465377953 0.9999999233631397
1800.5624470993416 0.9999999231171187
1800.564247662689 0.9999999228710896
1800.5660482278365 0.9999999226250501
1800.567848794785 0.9999999223789972
1800.569649363534 0.9999999221329259
1800.5714499340836 0.9999999218868285
1800.5732505064339 0.9999999216406902
1800.5750510805847 0.9999999213944765
1800.5768516565358 0.9999999211480944
1800.5786522342883 0.9999999209012976
1800.5804528138403 0.999999920653576
1800.582253395194 0.9999999204042899
1800.5840539783474 0.9999999201534133
1800.5858545633016 0.9999999199024905
1800.5876551500564 0.9999999196541978
1800.5894557386118 0.9999999194100119
1800.591256328968 0.9999999191686254
1800.5930569211246 0.9999999189273509
1800.594857515082 0.9999999186845148
1800.59665811084 0.9999999184400482
1800.598458708398 0.9999999181945671
1800.6002593077574 0.999999917948584
1800.6020599089168 0.9999999177023366
1800.603860511877 0.9999999174558905
1800.6056611166377 0.9999999172092272
1800.607461723199 0.9999999169622691
1800.609262331561 0.9999999167148486
1800.6110629417235 0.999999916466611
1800.6128635536868 0.9999999162167478
1800.6146641674504 0.9999999159633117
1800.6164647830149 0.999999915701952
1800.6182654003796 0.9999999154253482
1800.6200660195454 0.9999999151273123
1800.6218666405118 0.9999999148134872
1800.6236672632788 0.9999999145089518
1800.6254678878463 0.9999999142456136
1800.6272685142142 0.9999999140345366
1800.629069142383 0.9999999138548115
1800.630869772352 0.9999999136737177
1800.6326704041226 0.9999999134722908
1800.6344710376932 0.9999999132502714
1800.6362716730644 0.9999999130154821
1800.6380723102366 0.9999999127746991
1800.6398729492091 0.9999999125314368
1800.6416735899818 0.9999999122870992
1800.6434742325562 0.9999999120422081
1800.6452748769307 0.9999999117969823
1800.6470755231057 0.999999911551534
1800.6488761710814 0.9999999113059287
1800.6506768208578 0.9999999110602075
1800.652477472435 0.9999999108143974
1800.6542781258127 0.9999999105685167
1800.656078780991 0.9999999103225773
1800.65787943797 0.9999999100765875
1800.6596800967498 0.9999999098305529
1800.66148075733 0.9999999095844765
1800.6632814197112 0.9999999093383597
1800.6650820838927 0.9999999090922028
1800.6668827498752 0.9999999088460048
1800.6686834176583 0.9999999085997628
1800.6704840872417 0.9999999083534735
1800.6722847586261 0.9999999081071315
1800.6740854318116 0.9999999078607299
1800.675886106797 0.9999999076142597
1800.6776867835833 0.9999999073677094
1800.6794874621703 0.9999999071210643
1800.6812881425583 0.9999999068743053
1800.6830888247466 0.9999999066274072
1800.6848895087362 0.9999999063803375
1800.6866901945255 0.9999999061330522
1800.688490882116 0.9999999058854918
1800.6902915715073 0.999999905637573
1800.6920922626994 0.9999999053891774
1800.6938929556916 0.9999999051401305
1800.6956936504848 0.9999999048901769
1800.6974943470789 0.9999999046389226
1800.6992950454735 0.9999999043857123
1800.7010957456691 0.9999999041292588
1800.702896447665 0.9999999038664793
1800.7046971514615 0.9999999035891667
1800.7064978570588 0.9999999032770616
1800.7082985644572 0.9999999028912637
1800.710099273656 0.9999999023857536
1800.7118999846555 0.9999999017570005
1800.7137006974554 0.9999999011055358
1800.7155014120567 0.99999990061869
1800.7173021284584 0.99999990043503
1800.719102846661 0.9999999005170002
1800.7209035666635 0.9999999006870592
1800.7227042884679 0.9999999007810193
1800.7245050120723 0.999999900743576
1800.7263057374778 0.9999999006029268
1800.7281064646834 0.9999999004059413
1800.7299071936905 0.999999900184039
1800.7317079244979 0.9999998999517393
1800.7335086571063 0.9999998997146337
1800.7353093915149 0.9999998994748851
1800.7371101277247 0.9999998992334808
1800.738910865735 0.9999998989909602
1800.7407116055463 0.9999998987476456
1800.7425123471583 0.9999998985037358
1800.7443130905708 0.9999998982593334
1800.7461138357844 0.9999998980144581
1800.7479145827986 0.9999998977691007
1800.7497153316133 0.9999998975233594
1800.7515160822288 0.9999998972775556
1800.7533168346454 0.9999998970320859
1800.7551175888625 0.9999998967870654
1800.7569183448804 0.9999998965422243
1800.758719102699 0.9999998962972139
1800.7605198623187 0.9999998960518909
1800.7623206237388 0.9999998958063021
1800.7641213869597 0.9999998955605366
1800.7659221519814 0.9999998953146448
1800.7677229188037 0.999999895068628
1800.769523687427 0.9999998948224273
1800.7713244578508 0.9999998945758689
1800.7731252300757 0.9999998943285645
1800.7749260041012 0.9999998940799082
1800.7767267799275 0.9999998938294524
1800.7785275575545 0.9999998935777032
1800.7803283369824 0.9999998933265718
1800.7821291182113 0.9999998930784063
1800.7839299012405 0.9999998928341127
1800.7857306860708 0.9999998925924348
1800.7875314727019 0.9999998923512168
1800.7893322611335 0.9999998921089683
1800.7911330513662 0.9999998918652127
1800.7929338433994 0.9999998916200479
1800.7947346372334 0.9999998913738657
1800.7965354328685 0.9999998911271929
1800.7983362303044 0.9999998908803511
1800.8001370295412 0.9999998906331059
1800.8019378305783 0.999999890384479
1800.8037386334167 0.9999998901323542
1800.8055394380553 0.9999998898729797
1800.807340244495 0.9999998896023697
1800.8091410527359 0.9999998893215012
1800.8109418627773 0.99999988904162
1800.8127426746196 0.999999888780231
1800.8145434882624 0.9999998885469166
1800.8163443037058 0.9999998883340278
1800.8181451209505 0.9999998881242184
1800.8199459399964 0.9999998879049791
1800.8217467608426 0.9999998876741847
1800.82354758349 0.9999998874355208
1800.8253484079382 0.9999998871929446
1800.8271492341864 0.9999998869487127
1800.8289500622361 0.9999998867037734
1800.8307508920861 0.9999998864584818
1800.8325517237377 0.9999998862129824
1800.8343525571897 0.999999885967347
1800.8361533924426 0.9999998857216174
1800.8379542294967 0.9999998854758197
1800.8397550683515 0.9999998852299717
1800.8415559090063 0.9999998849840853
1800.843356751463 0.999999884738169
1800.84515759572 0.999999884492229
1800.8469584417778 0.9999998842462697
1800.8487592896365 0.9999998840002945
1800.8505601392958 0.9999998837543055
1800.8523609907566 0.9999998835083042
1800.8541618440174 0.9999998832622914
1800.85596269908 0.9999998830162691
1800.857763555943 0.99999988277024
1800.8595644146067 0.9999998825242075
1800.8613652750714 0.9999998822781732
1800.863166137337 0.9999998820321356
1800.8649670014036 0.9999998817860928
1800.8667678672707 0.9999998815400437
1800.868568734939 0.9999998812939884
1800.8703696044079 0.9999998810479277
1800.8721704756779 0.9999998808018623
1800.8739713487485 0.9999998805557925
1800.87577222362 0.9999998803097184
1800.877573100293 0.99999988006364
1800.8793739787664 0.9999998798175574
1800.8811748590406 0.9999998795714703
1800.882975741116 0.9999998793253786
1800.8847766249924 0.9999998790792821
1800.8865775106694 0.9999998788331804
1800.8883783981469 0.9999998785870732
1800.890179287426 0.9999998783409599
1800.8919801785055 0.9999998780948399
1800.893781071386 0.9999998778487124
1800.8955819660673 0.999999877602576
1800.89738286255 0.9999998773564295
1800.899183760833 0.9999998771102706
1800.9009846609176 0.9999998772486617
1800.9027855628024 0.9999998775090423
1800.9045864664881 0.9999998779006689
1800.906387371975 0.999999878327424
1800.9081882792627 0.9999998784146905
1800.9099891883516 0.9999998781681324
1800.9117900992412 0.9999998779210909
1800.9135910119317 0.999999877673069
1800.915391926423 0.9999998774236464
1800.9171928427154 0.9999998771927068
1800.9189937608087 0.999999877073589
1800.9207946807028 0.9999998770191567
1800.922595602398 0.9999998769954623
1800.924396525894 0.9999998769845633
1800.9261974511908 0.9999998769782082
1800.9279983782883 0.999999876973285
1800.9297993071875 0.9999998769690324
1800.931600237887 0.9999998769653758
1800.9334011703877 0.9999998769622634
1800.9352021046896 0.9999998769595796
1800.9370030407918 0.9999998769571982
1800.938803978695 0.9999998769550191
1800.9406049183995 0.9999998769529634
1800.9424058599047 0.9999998769509559
1800.944206803211 0.9999998769489145
1800.9460077483184 0.9999998769467456
1800.9478086952265 0.999999876944342
1800.9496096439352 0.9999998769415698
