Atmospheric Species: CO
Metallicity: 1
C/O_Ratio: 1.5
Wavelength[nm] Flux_variation
2399.998438414741 0.9999999440168303
2400.0008384143794 0.9999999439704903
2400.0032384164174 0.9999999439262472
2400.005638420856 0.9999999438839685
2400.008038427694 0.9999999438435324
2400.0104384369324 0.9999999438048266
2400.0128384485706 0.9999999437677465
2400.015238462609 0.9999999437321958
2400.0176384790475 0.9999999436980845
2400.0200384978857 0.99999994366533
2400.022438519124 0.9999999436338544
2400.0248385427626 0.9999999436035861
2400.0272385688013 0.9999999435744581
2400.0296385972397 0.9999999435464083
2400.032038628078 0.9999999435193778
2400.0344386613165 0.9999999434933127
2400.0368386969553 0.9999999434681617
2400.039238734994 0.9999999434438771
2400.041638775433 0.9999999434204145
2400.044038818271 0.999999943397732
2400.04643886351 0.9999999433757903
2400.048838911149 0.9999999433545523
2400.0512389611877 0.9999999433339836
2400.0536390136267 0.9999999433140511
2400.0560390684655 0.9999999432947244
2400.0584391257044 0.9999999432759744
2400.060839185344 0.9999999432577736
2400.0632392473826 0.9999999432400968
2400.065639311822 0.9999999432229187
2400.068039378661 0.999999943206217
2400.0704394479008 0.9999999431899693
2400.0728395195397 0.9999999431741553
2400.075239593579 0.9999999431587553
2400.077639670019 0.9999999431437508
2400.080039748859 0.9999999431291241
2400.0824398300983 0.9999999431148583
2400.084839913738 0.9999999431009378
2400.087239999778 0.9999999430873469
2400.089640088218 0.9999999430740717
2400.0920401790577 0.9999999430610981
2400.094440272298 0.9999999430484129
2400.0968403679385 0.9999999430360037
2400.0992404659787 0.9999999430238583
2400.101640566419 0.9999999430119652
2400.1040406692596 0.9999999430003135
2400.1064407745002 0.9999999429888923
2400.108840882141 0.9999999429776915
2400.1112409921816 0.9999999429667014
2400.1136411046227 0.9999999429559121
2400.1160412194636 0.9999999429453149
2400.118441336705 0.9999999429349004
2400.120841456346 0.99999994292466
2400.123241578388 0.9999999429145856
2400.1256417028294 0.9999999429046684
2400.128041829671 0.9999999428949006
2400.130441958913 0.9999999428852737
2400.1328420905547 0.9999999428757803
2400.135242224597 0.9999999428664121
2400.1376423610386 0.9999999428571611
2400.140042499881 0.9999999428480191
2400.1424426411236 0.9999999428389782
2400.1448427847663 0.9999999428300292
2400.1472429308087 0.9999999428211638
2400.1496430792517 0.9999999428123725
2400.152043230095 0.999999942803645
2400.154443383338 0.9999999427949707
2400.1568435389813 0.9999999427863376
2400.159243697025 0.9999999427777324
2400.1616438574683 0.9999999427691397
2400.1640440203123 0.9999999427605422
2400.1664441855564 0.999999942751919
2400.1688443532003 0.9999999427432449
2400.1712445232447 0.9999999427344898
2400.173644695689 0.9999999427256145
2400.1760448705336 0.9999999427165708
2400.1784450477785 0.9999999427072935
2400.1808452274236 0.999999942697697
2400.1832454094692 0.9999999426876612
2400.1856455939146 0.999999942677017
2400.18804578076 0.9999999426655133
2400.190445970006 0.9999999426527656
2400.1928461616517 0.999999942638144
2400.1952463556977 0.999999942620546
2400.1976465521443 0.9999999425977871
2400.200046750991 0.9999999425647272
2400.202446952238 0.9999999425067785
2400.204847155885 0.9999999423778294
2400.2072473619323 0.9999999420295588
2400.2096475703793 0.9999999410558432
2400.212047781227 0.9999999389295667
2400.2144479944745 0.9999999363872216
2400.2168482101224 0.999999935928208
2400.219248428171 0.9999999381099751
2400.221648648619 0.999999940525036
2400.224048871468 0.999999941784555
2400.226449096717 0.9999999422433892
2400.228849324366 0.9999999423978944
2400.2312495544156 0.9999999424538095
2400.233649786865 0.9999999424762013
2400.2360500217146 0.999999942485362
2400.238450258965 0.9999999424881235
2400.240850498615 0.9999999424872043
2400.2432507406656 0.9999999424838951
2400.2456509851163 0.9999999424788856
2400.2480512319676 0.9999999424725651
2400.2504514812185 0.9999999424651517
2400.2528517328706 0.9999999424567558
2400.2552519869223 0.9999999424474092
2400.257652243374 0.9999999424370777
2400.2600525022262 0.9999999424256606
2400.262452763479 0.9999999424129793
2400.2648530271317 0.9999999423987508
2400.2672532931847 0.9999999423825366
2400.2696535616383 0.9999999423636541
2400.272053832492 0.9999999423409909
2400.2744541057455 0.9999999423126394
2400.2768543813995 0.9999999422750026
2400.279254659454 0.9999999422203525
2400.281654939909 0.9999999421292518
2400.284055222764 0.9999999419459666
2400.2864555080196 0.9999999414922652
2400.288855795675 0.9999999401964802
2400.2912560857308 0.9999999369557641
2400.293656378187 0.9999999321834819
2400.2960566730435 0.9999999302560987
2400.2984569703003 0.99999993361444
2400.3008572699573 0.9999999381761621
2400.3032575720144 0.9999999406672433
2400.3056578764727 0.9999999415639423
2400.30805818333 0.9999999418649186
2400.3104584925886 0.9999999419731207
2400.3128588042473 0.9999999420075623
2400.315259118306 0.9999999419988365
2400.317659434765 0.9999999419361013
2400.3200597536247 0.9999999417710823
2400.3224600748845 0.9999999414408154
2400.324860398545 0.9999999409607494
2400.3272607246054 0.9999999405235782
2400.329661053066 0.9999999404020506
2400.332061383927 0.9999999406713869
2400.3344617171883 0.9999999411212019
2400.3368620528504 0.9999999414917734
2400.3392623909126 0.9999999416884945
2400.341662731375 0.9999999417543043
2400.344063074238 0.9999999417548008
2400.346463419501 0.9999999417275793
2400.3488637671644 0.9999999416870161
2400.3512641172283 0.9999999416375169
2400.3536644696924 0.9999999415802346
2400.356064824557 0.9999999415152709
2400.358465181822 0.9999999414423895
2400.3608655414873 0.9999999413615047
2400.363265903553 0.9999999412738237
2400.365666268019 0.9999999411856095
2400.3680666348855 0.9999999411182644
2400.370467004152 0.9999999410816298
2400.372867375819 0.9999999410194872
2400.375267749887 0.9999999409258595
2400.377668126355 0.9999999407928554
2400.380068505223 0.9999999406098773
2400.3824688864916 0.9999999403624206
2400.3848692701604 0.9999999400301625
2400.38726965623 0.9999999390155233
2400.3896700446994 0.999999938022989
2400.3920704355696 0.9999999369512667
2400.394470828841 0.9999999356162372
2400.3968712245114 0.9999999337727166
2400.3992716225825 0.9999999309933185
2400.4016720230543 0.9999999262729632
2400.404072425926 0.9999999168141737
2400.4064728311987 0.999999895151399
2400.408873238872 0.9999998460529581
2400.411273648945 0.9999997517120289
2400.4136740614185 0.99999961527254
2400.416074476293 0.9999994928423535
2400.4184748935677 0.9999994721043116
2400.4208753132425 0.9999995708407038
2400.423275735318 0.9999997118215499
2400.425676159794 0.999999821795814
2400.42807658667 0.9999998835903723
2400.430477015947 0.9999999118749697
2400.432877447624 0.9999999240096609
2400.435277881702 0.9999999297420592
2400.43767831818 0.9999999329485886
2400.440078757058 0.999999934996481
2400.442479198337 0.9999999364134271
2400.444879642016 0.9999999374443062
2400.447280088096 0.9999999382211151
2400.449680536576 0.9999999388224542
2400.4520809874566 0.9999999392979404
2400.4544814407377 0.999999939680698
2400.4568818964194 0.9999999399934333
2400.4592823545017 0.9999999402522302
2400.461682814984 0.9999999404687717
2400.4640832778673 0.9999999406517183
2400.4664837431505 0.9999999408076028
2400.4688842108344 0.9999999409414356
2400.471284680919 0.9999999410571099
2400.4736851534035 0.9999999411576869
2400.476085628289 0.9999999412455957
2400.4784861055746 0.9999999413227662
2400.480886585261 0.9999999413907078
2400.4832870673476 0.9999999414504572
2400.485687551835 0.9999999415022393
2400.4880880387227 0.9999999415444911
2400.490488528011 0.9999999415730325
2400.4928890196993 0.9999999415874283
2400.495289513789 0.9999999415971794
2400.4976900102783 0.9999999416220581
2400.5000905091683 0.9999999416591274
2400.5024910104594 0.9999999416869105
2400.5048915141506 0.9999999417021713
2400.5072920202424 0.9999999417101704
2400.5096925287344 0.999999941714419
2400.512093039627 0.9999999417163264
2400.5144935529206 0.999999941716454
2400.516894068614 0.9999999417150743
2400.519294586708 0.9999999417123636
2400.521695107203 0.9999999417084566
2400.524095630098 0.999999941703466
2400.526496155394 0.9999999416974885
2400.5288966830904 0.9999999416906087
2400.531297213187 0.9999999416829012
2400.5336977456845 0.9999999416744318
2400.5360982805823 0.9999999416652601
2400.5384988178807 0.999999941655438
2400.5408993575797 0.9999999416450134
2400.54329989968 0.9999999416340281
2400.5457004441796 0.9999999416225199
2400.54810099108 0.9999999416105231
2400.5505015403814 0.9999999415980682
2400.552902092083 0.9999999415851822
2400.5553026461853 0.9999999415718894
2400.557703202688 0.9999999415582111
2400.560103761591 0.9999999415441666
2400.5625043228956 0.9999999415297726
2400.5649048866 0.9999999415150423
2400.5673054527047 0.9999999414999883
2400.56970602121 0.9999999414846191
2400.5721065921166 0.9999999414689422
2400.5745071654233 0.9999999414529616
2400.576907741131 0.9999999414366789
2400.579308319239 0.9999999414200923
2400.5817088997474 0.9999999414031965
2400.5841094826565 0.9999999413859817
2400.586510067966 0.9999999413684335
2400.5889106556765 0.9999999413505305
2400.5913112457874 0.999999941332244
2400.5937118382985 0.9999999413135346
2400.5961124332107 0.9999999412943498
2400.5985130305235 0.9999999412746184
2400.6009136302364 0.9999999412542457
2400.6033142323504 0.9999999412331015
2400.605714836865 0.9999999412110068
2400.6081154437798 0.9999999411877097
2400.6105160530956 0.9999999411628471
2400.6129166648116 0.9999999411358778
2400.6153172789286 0.9999999411059721
2400.617717895446 0.9999999410717773
2400.620118514364 0.9999999410309306
2400.622519135683 0.99999994097879
2400.6249197594025 0.9999999409044961
2400.627320385522 0.9999999407774869
2400.629721014043 0.9999999405076879
2400.632121644964 0.999999939869027
2400.634522278286 0.9999999384765478
2400.6369229140087 0.9999999361141704
2400.6393235521314 0.9999999335323662
2400.641724192655 0.9999999325212697
2400.6441248355795 0.9999999339694251
2400.646525480905 0.9999999365979547
2400.6489261286306 0.9999999387348172
2400.651326778757 0.9999999398966297
2400.6537274312836 0.999999940391373
2400.6561280862115 0.9999999405801863
2400.6585287435396 0.9999999406536144
2400.6609294032687 0.9999999406838289
2400.6633300653984 0.9999999406951355
2400.665730729929 0.9999999406964607
2400.6681313968597 0.9999999406917834
2400.6705320661913 0.9999999406831913
2400.6729327379235 0.9999999406719067
2400.6753334120563 0.9999999406586946
2400.67773408859 0.9999999406440698
2400.680134767524 0.9999999406284054
2400.682535448859 0.9999999406120302
2400.684936132595 0.9999999405953972
2400.6873368187316 0.9999999405795258
2400.6897375072685 0.9999999405671319
2400.6921381982065 0.9999999405636836
2400.694538891545 0.9999999405706889
2400.6969395872843 0.9999999405699228
2400.699340285424 0.9999999405396445
2400.7017409859645 0.9999999404922296
2400.704141688906 0.9999999404517316
2400.706542394248 0.9999999404220739
2400.708943101991 0.9999999403976809
2400.711343812134 0.9999999403749663
2400.713744524678 0.999999940352605
2400.716145239623 0.9999999403301596
2400.7185459569682 0.9999999403074719
2400.7209466767144 0.9999999402844628
2400.7233473988613 0.9999999402610718
2400.7257481234087 0.9999999402372377
2400.7281488503572 0.9999999402128914
2400.7305495797063 0.9999999401879485
2400.7329503114565 0.9999999401623038
2400.735351045607 0.9999999401358235
2400.7377517821583 0.9999999401083348
2400.7401525211103 0.99999994007961
2400.742553262463 0.9999999400493442
2400.7449540062166 0.9999999400171219
2400.747354752371 0.9999999399823621
2400.749755500926 0.9999999399442326
2400.752156251882 0.9999999399014906
2400.754557005238 0.9999999398522351
2400.7569577609956 0.999999939793346
2400.7593585191535 0.9999999397193347
2400.7617592797124 0.9999999396193554
2400.764160042672 0.999999939468429
2400.7665608080324 0.9999999392004676
2400.7689615757936 0.9999999386414997
2400.7713623459554 0.9999999374161244
2400.7737631185178 0.9999999350202687
2400.776163893481 0.9999999314026862
2400.7785646708453 0.9999999278068687
2400.7809654506104 0.9999999264144722
2400.783366232776 0.9999999282437386
2400.7857670173426 0.9999999319433164
2400.78816780431 0.9999999353691021
2400.790568593678 0.9999999375124948
2400.792969385447 0.9999999385588833
2400.795370179617 0.999999939015032
2400.797770976187 0.9999999392210438
2400.8001717751586 0.9999999393280465
2400.8025725765306 0.9999999393933195
2400.8049733803036 0.9999999394399467
2400.8073741864773 0.9999999394798063
2400.8097749950516 0.9999999395215499
2400.8121758060265 0.9999999395744531
2400.8145766194034 0.9999999396527136
2400.81697743518 0.9999999397700352
2400.819378253358 0.9999999398846601
2400.821779073937 0.999999939997129
2400.8241798969157 0.9999999401078272
2400.826580722296 0.9999999402170338
2400.828981550077 0.9999999403249534
2400.831382380259 0.9999999404317375
2400.8337832128414 0.9999999405374987
2400.8361840478256 0.9999999406423202
2400.8385848852095 0.9999999407462629
2400.8409857249944 0.9999999408493699
2400.843386567181 0.9999999406896113
2400.8457874117676 0.9999999398768791
2400.8481882587557 0.9999999395067409
2400.850589108144 0.9999999393010898
2400.8529899599334 0.9999999391657008
2400.855390814124 0.9999999390651062
2400.857791670715 0.9999999389839838
2400.860192529707 0.9999999389147479
2400.8625933911 0.999999938853272
2400.8649942548936 0.9999999387973524
2400.867395121088 0.9999999387459033
2400.8697959896836 0.9999999386979495
2400.87219686068 0.9999999386514024
2400.8745977340773 0.9999999386032372
2400.876998609875 0.9999999385518287
2400.8793994880743 0.9999999384982822
2400.8818003686742 0.9999999384444876
2400.8842012516748 0.9999999383908447
2400.8866021370764 0.9999999383360938
2400.889003024879 0.9999999382776
2400.8914039150823 0.9999999382092418
2400.8938048076866 0.9999999381138578
2400.8962057026915 0.9999999379499102
2400.8986066000975 0.9999999376531389
2400.9010074999046 0.9999999372073854
2400.9034084021123 0.999999936776787
2400.9058093067215 0.9999999366545241
2400.908210213731 0.9999999369110467
2400.9106111231413 0.9999999372943268
2400.9130120349528 0.9999999375743007
2400.9154129491653 0.9999999377314772
2400.917813865779 0.9999999378565094
2400.9202147847927 0.9999999379402755
2400.9226157062076 0.9999999380069142
2400.925016630024 0.9999999380647843
2400.927417556241 0.9999999381164904
2400.929818484859 0.9999999381628452
2400.932219415878 0.9999999382040451
2400.934620349298 0.9999999382400171
2400.9370212851186 0.9999999382705371
2400.93942222334 0.9999999382952768
2400.9418231639625 0.999999937388683
2400.944224106986 0.9999999368881256
2400.9466250524106 0.9999999366031104
2400.949026000236 0.9999999363921573
2400.9514269504625 0.9999999362046617
2400.95382790309 0.9999999360228065
2400.956228858118 0.9999999358389694
2400.9586298155473 0.9999999356488942
2400.9610307753774 0.9999999354501653
2400.963431737609 0.9999999352412895
2400.9658327022407 0.9999999350184571
2400.968233669274 0.99999993477961
2400.9706346387084 0.999999934522296
2400.9730356105433 0.9999999342439186
2400.975436584779 0.9999999339415621
2400.9778375614164 0.9999999336119042
2400.980238540454 0.9999999332509474
2400.9826395218934 0.9999999328545234
2400.985040505733 0.9999999324172406
2400.987441491974 0.9999999319328908
2400.989842480616 0.9999999313940611
2400.9922434716586 0.9999999307918571
2400.9946444651027 0.9999999301154772
2400.9970454609474 0.999999929351816
2400.999446459193 0.9999999284846676
2401.00184745984 0.9999999274939345
2401.004248462888 0.9999999263543621
2401.006649468337 0.999999925033898
2401.009050476187 0.9999999234913474
2401.0114514864376 0.9999999216729997
2401.0138524990894 0.9999999195077303
2401.0162535141426 0.9999999168996224
2401.0186545315964 0.9999999137166806
2401.0210555514514 0.9999999097726155
2401.0234565737073 0.9999999047957648
2401.025857598364 0.9999998983793691
2401.028258625422 0.9999998898767849
2401.030659654881 0.9999998781984356
2401.0330606867415 0.9999998612919229
2401.0354617210023 0.9999998346175323
2401.0378627576647 0.9999997862884473
2401.0402637967277 0.9999996838314371
2401.042664838192 0.9999994456015486
2401.0450658820573 0.9999988789665759
2401.0474669283235 0.9999976682026284
2401.0498679769908 0.9999959584323278
2401.052269028059 0.9999951119046814
2401.054670081529 0.9999961046448194
2401.0570711373994 0.9999978087869967
2401.059472195671 0.9999989520864566
2401.0618732563435 0.9999994765479809
2401.064274319417 0.9999996969271644
2401.0666753848914 0.9999997922607811
2401.0690764527676 0.9999998378505633
2401.0714775230445 0.9999998634240693
2401.0738785957224 0.9999998798288985
2401.076279670802 0.9999998912573738
2401.0786807482814 0.9999998994352901
2401.081081828163 0.9999999052886402
2401.083482910445 0.9999999099156016
2401.0858839951284 0.9999999136584645
2401.088285082213 0.9999999167151046
2401.0906861716985 0.9999999192314002
2401.0930872635854 0.999999921322538
2401.095488357873 0.9999999230775551
2401.097889454562 0.999999924564239
2401.100290553651 0.9999999258344254
2401.1026916551423 0.999999926928142
2401.1050927590345 0.9999999278767776
2401.107493865328 0.9999999287052587
2401.1098949740217 0.9999999294337737
2401.112296085117 0.9999999300791313
2401.114697198614 0.9999999306559785
2401.1170983145116 0.9999999311787594
2401.1194994328107 0.9999999316657323
2401.12190055351 0.999999932150836
2401.1243016766116 0.9999999326425763
2401.1267028021134 0.9999999330989602
2401.1291039300168 0.9999999335240324
2401.131505060321 0.9999999339216475
2401.1339061930266 0.9999999342949686
2401.1363073281336 0.9999999346467133
2401.138708465641 0.9999999349793299
2401.14110960555 0.9999999348638272
2401.14351074786 0.9999999345465023
2401.1459118925713 0.9999999345274515
2401.1483130396837 0.9999999345964885
2401.150714189197 0.9999999346904455
2401.153115341112 0.9999999347892671
2401.1555164954275 0.9999999348861401
2401.1579176521445 0.9999999349786424
2401.160318811263 0.9999999350659318
2401.1627199727823 0.9999999351478028
2401.1651211367025 0.9999999352243342
2401.1675223030243 0.9999999352957316
2401.169923471747 0.9999999353622594
2401.172324642871 0.9999999354242031
2401.174725816396 0.999999935481848
2401.1771269923224 0.999999935535472
2401.17952817065 0.9999999355853404
2401.1819293513786 0.9999999356317016
2401.1843305345087 0.9999999356747891
2401.1867317200395 0.9999999357148199
2401.1891329079717 0.9999999357519954
2401.1915340983055 0.9999999357865018
2401.19393529104 0.9999999358185132
2401.196336486176 0.9999999358481897
2401.198737683713 0.9999999358756809
2401.201138883651 0.999999935901126
2401.2035400859904 0.9999999359246555
2401.205941290731 0.9999999359463922
2401.2083424978728 0.9999999359664534
2401.210743707416 0.9999999359849545
2401.21314491936 0.9999999360020149
2401.215546133705 0.9999999360177714
2401.217947350452 0.9999999360324164
2401.2203485695995 0.9999999360463159
2401.2227497911485 0.9999999360603137
2401.225151015099 0.9999999360762754
2401.2275522414507 0.999999936097235
2401.2299534702033 0.9999999361249451
2401.2323547013575 0.999999936153195
2401.2347559349128 0.9999999361668255
2401.237157170869 0.9999999361591667
2401.239558409227 0.999999936142184
2401.241959649986 0.9999999361292629
2401.244360893146 0.9999999361233011
2401.2467621387077 0.99999993612166
2401.2491633866703 0.9999999361217072
2401.251564637034 0.9999999361220746
2401.253965889799 0.9999999361222269
2401.2563671449657 0.9999999361219832
2401.2587684025334 0.999999936121286
2401.261169662502 0.9999999361201207
2401.263570924872 0.9999999361184906
2401.2659721896434 0.999999936116405
2401.2683734568163 0.9999999361138783
2401.2707747263903 0.999999936110925
2401.273175998366 0.9999999361075608
