Atmospheric Species: CO
Metallicity: 1
C/O_Ratio: 1.5
Wavelength[nm] Flux_variation
899.9996421494948 0.9999998140204105
900.0005421495869 0.9999998140204615
900.001442150579 0.9999998140205124
900.0023421524711 0.9999998140205634
900.0032421552633 0.9999998140206143
900.0041421589555 0.9999998140206652
900.0050421635475 0.9999998140207162
900.0059421690396 0.9999998140207673
900.0068421754318 0.9999998140208182
900.0077421827239 0.9999998140208691
900.0086421909161 0.9999998140209201
900.0095422000082 0.9999998140208992
900.0104422100004 0.9999998140208308
900.0113422208927 0.9999998140207623
900.0122422326849 0.999999814020694
900.013142245377 0.9999998140206257
900.0140422589691 0.9999998140205572
900.0149422734613 0.999999814020489
900.0158422888536 0.9999998140204205
900.0167423051458 0.9999998140203521
900.017642322338 0.9999998140202837
900.0185423404303 0.9999998140202152
900.0194423594227 0.9999998140201468
900.020342379315 0.9999998140200785
900.0212424001073 0.99999981402001
900.0221424217997 0.9999998140199415
900.0230424443921 0.9999998140198733
900.0239424678846 0.9999998140198049
900.024842492277 0.9999998140197364
900.0257425175695 0.999999814019668
900.0266425437621 0.9999998140195995
900.0275425708543 0.9999998140195311
900.028442598847 0.9999998140194627
900.0293426277395 0.9999998140193942
900.0302426575322 0.9999998140193258
900.0311426882248 0.9999998140192573
900.0320427198175 0.9999998140191888
900.0329427523099 0.9999998140191204
900.0338427857027 0.9999998140190519
900.0347428199954 0.9999998140189834
900.0356428551884 0.999999814018915
900.0365428912813 0.9999998140188465
900.0374429282743 0.999999814018778
900.0383429661671 0.9999998140187095
900.0392430049601 0.999999814018641
900.0401430446531 0.9999998140185725
900.0410430852461 0.9999998140185041
900.041943126739 0.9999998140184356
900.0428431691322 0.9999998140183671
900.0437432124255 0.9999998140182986
900.0446432566187 0.99999981401823
900.0455433017121 0.9999998140181616
900.0464433477051 0.9999998140181022
900.0473433945986 0.999999814018054
900.0482434423918 0.9999998140180059
900.0491434910853 0.9999998140179576
900.0500435406788 0.9999998140179094
900.0509435911723 0.9999998140178612
900.051843642566 0.9999998140178129
900.0527436948595 0.9999998140177647
900.0536437480532 0.9999998140177165
900.0545438021469 0.9999998140176684
900.0554438571407 0.9999998140176201
900.0563439130347 0.9999998140175718
900.0572439698285 0.9999998140175236
900.0581440275225 0.9999998140174752
900.0590440861165 0.9999998140174271
900.0599441456106 0.9999998140173788
900.0608442060047 0.9999998140173305
900.0617442672989 0.9999998140172822
900.0626443294932 0.999999814017234
900.0635443925875 0.9999998140171857
900.064444456582 0.9999998140171374
900.0653445214763 0.9999998140170892
900.0662445872707 0.999999814017041
900.0671446539653 0.9999998140169927
900.06804472156 0.9999998140169443
900.0689447900545 0.9999998140168961
900.0698448594495 0.9999998140168477
900.0707449297444 0.9999998140167995
900.0716450009393 0.9999998140167511
900.0725450730342 0.9999998140167029
900.0734451460294 0.9999998140166545
900.0743452199245 0.9999998140166062
900.0752452947198 0.9999998140165578
900.0761453704149 0.9999998140165095
900.0770454470104 0.9999998140164613
900.0779455245058 0.9999998140164128
900.0788456029013 0.9999998140163645
900.0797456821969 0.9999998140163162
900.0806457623926 0.9999998140162679
900.0815458434884 0.9999998140162194
900.0824459254843 0.9999998140161711
900.0833460083802 0.9999998140161228
900.0842460921762 0.9999998140160744
900.0851461768722 0.9999998140160261
900.0860462624685 0.9999998140159777
900.0869463489646 0.9999998140159294
900.087846436361 0.9999998140158809
900.0887465246574 0.9999998140158326
900.0896466138541 0.9999998140157842
900.0905467039507 0.9999998140157359
900.0914467949473 0.9999998140156874
900.0923468868441 0.999999814015639
900.093246979641 0.9999998140155907
900.0941470733379 0.9999998140155422
900.095047167935 0.9999998140154939
900.0959472634321 0.9999998140154455
900.0968473598296 0.9999998140153972
900.0977474571268 0.9999998140153485
900.0986475553243 0.9999998140153002
900.0995476544218 0.9999998140152518
900.1004477544196 0.9999998140152033
900.1013478553174 0.9999998140151549
900.1022479571152 0.9999998140151065
900.1031480598132 0.9999998140150581
900.1040481634111 0.9999998140150096
900.1049482679095 0.9999998140149612
900.1058483733077 0.9999998140149128
900.1067484796062 0.9999998140148644
900.1076485868047 0.9999998140148159
900.1085486949032 0.9999998140147673
900.1094488039018 0.9999998140147188
900.1103489138007 0.9999998140146704
900.1112490245996 0.9999998140146219
900.1121491362986 0.9999998140145735
900.1130492488979 0.999999814014525
900.1139493623971 0.9999998140144765
900.1148494767965 0.999999814014428
900.115749592096 0.9999998140143795
900.1166497082957 0.999999814014331
900.1175498253954 0.9999998140142825
900.1184499433953 0.9999998140142341
900.1193500622951 0.9999998140141855
900.1202501820952 0.9999998140141371
900.1211503027954 0.9999998140140886
900.1220504243958 0.9999998140140399
900.1229505468962 0.9999998140139914
900.1238506702967 0.9999998140139429
900.1247507945975 0.9999998140138944
900.1256509197983 0.999999814013846
900.1265510458993 0.9999998140137972
900.1274511729004 0.9999998140137488
900.1283513008017 0.9999998140137003
900.129251429603 0.9999998140136517
900.1301515593042 0.9999998140136032
900.1310516899059 0.9999998140135545
900.1319518214076 0.999999814013506
900.1328519538096 0.9999998140134575
900.1337520871116 0.9999998140134089
900.1346522213137 0.9999998140133602
900.1355523564158 0.9999998140133117
900.1364524924182 0.9999998140132631
900.1373526293208 0.9999998140132146
900.1382527671235 0.9999998140131661
900.1391529058263 0.9999998140131174
900.1400530454292 0.9999998140130688
900.1409531859323 0.9999998140130203
900.1418533273356 0.9999998140129717
900.1427534696388 0.999999814012923
900.1436536128424 0.9999998140128744
900.144553756946 0.9999998140128259
900.1454539019498 0.9999998140127772
900.1463540478538 0.9999998140127285
900.1472541946582 0.9999998140126799
900.1481543423622 0.9999998140126314
900.1490544909666 0.9999998140125826
900.149954640471 0.999999814012534
900.1508547908757 0.9999998140124854
900.1517549421804 0.9999998140124369
900.1526550943853 0.9999998140123881
900.1535552474907 0.9999998140123395
900.1544554014959 0.9999998140122908
900.1553555564013 0.9999998140122421
900.156255712207 0.9999998140121935
900.1571558689127 0.9999998140121449
900.1580560265187 0.9999998140120961
900.1589561850247 0.9999998140120475
900.159856344431 0.9999998140119989
900.1607565047374 0.9999998140119501
900.161656665944 0.9999998140119014
900.1625568280508 0.9999998140118527
900.1634569910575 0.999999814011804
900.1643571549646 0.9999998140117554
900.1652573197717 0.9999998140117067
900.166157485479 0.9999998140116579
900.1670576520864 0.9999998140116093
900.1679578195943 0.9999998140115605
900.1688579880022 0.9999998140115117
900.1697581573101 0.9999998140114632
900.1706583275183 0.9999998140114145
900.1715584986268 0.9999998140114359
900.1724586706354 0.9999998140115072
900.1733588435441 0.9999998140115786
900.1742590173529 0.9999998140116498
900.1751591920622 0.9999998140117211
900.1760593676713 0.9999998140117925
900.1769595441807 0.9999998140118639
900.1778597215903 0.9999998140119353
900.1787598999 0.9999998140120067
900.17966007911 0.9999998140120779
900.1805602592201 0.9999998140121493
900.1814604402305 0.9999998140122207
900.182360622141 0.999999814012292
900.1832608049516 0.9999998140123634
900.1841609886624 0.9999998140124348
900.1850611732734 0.9999998140125061
900.1859613587848 0.9999998140125775
900.1868615451962 0.9999998140126488
900.1877617325077 0.9999998140127202
900.1886619207195 0.9999998140127916
900.1895621098315 0.999999814012863
900.1904622998437 0.9999998140129343
900.1913624907561 0.9999998140130055
900.1922626825685 0.9999998140130768
900.1931628752812 0.9999998140131482
900.1940630688943 0.9999998140132196
900.1949632634075 0.9999998140132909
900.1958634588207 0.9999998140133622
900.1967636551343 0.9999998140134336
900.1976638523481 0.999999814013505
900.1985640504619 0.9999998140135763
900.199464249476 0.9999998140136477
900.2003644493906 0.999999814013719
900.2012646502048 0.9999998140137903
900.2021648519196 0.9999998140138617
900.2030650545345 0.9999998140139331
900.2039652580496 0.9999998140140044
900.2048654624649 0.9999998140140758
900.2057656677805 0.9999998140141471
900.206665873996 0.9999998140142184
900.2075660811121 0.9999998140142898
900.2084662891282 0.9999998140143815
900.2093664980446 0.9999998140145135
900.2102667078611 0.9999998140146457
900.211166918578 0.9999998140147778
900.2120671301949 0.9999998140149098
900.2129673427122 0.9999998140150419
900.2138675561295 0.9999998140151739
900.2147677704475 0.9999998140153062
900.2156679856652 0.9999998140154382
900.2165682017832 0.9999998140155704
900.2174684188016 0.9999998140157024
900.2183686367199 0.9999998140158345
900.2192688555386 0.9999998140159666
900.2201690752576 0.9999998140160986
900.2210692958768 0.9999998140162307
900.2219695173961 0.9999998140163628
900.2228697398157 0.999999814016495
900.2237699631354 0.999999814016627
900.2246701873555 0.9999998140167591
900.2255704124758 0.9999998140168912
900.2264706384963 0.9999998140170234
900.2273708654169 0.9999998140171555
900.2282710932378 0.9999998140172877
900.229171321959 0.9999998140174198
900.2300715515805 0.9999998140175518
900.2309717821018 0.999999814017684
900.2318720135238 0.9999998140178161
900.2327722458459 0.9999998140179482
900.2336724790683 0.9999998140180802
900.2345727131908 0.9999998140182124
900.2354729482137 0.9999998140183445
900.2363731841367 0.9999998140184766
900.2372734209599 0.9999998140186088
900.2381736586835 0.999999814018741
900.2390738973071 0.9999998140188731
900.2399741368312 0.9999998140190052
900.2408743772554 0.9999998140191373
900.2417746185798 0.9999998140192695
900.2426748608045 0.9999998140194015
900.2435751039295 0.9999998140195336
900.2444753479547 0.9999998140196659
900.2453755928801 0.999999814019798
900.2462758387059 0.9999998140199301
900.2471760854318 0.9999998140200622
900.2480763330581 0.9999998140201944
900.2489765815844 0.9999998140203266
900.2498768310113 0.9999998140204588
900.250777081338 0.9999998140205909
900.2516773325652 0.9999998140207231
900.2525775846927 0.9999998140208552
900.2534778377203 0.9999998140209874
900.2543780916483 0.9999998140211195
900.2552783464765 0.9999998140212516
900.2561786022051 0.9999998140213838
900.2570788588337 0.9999998140215158
900.2579791163627 0.9999998140216481
900.2588793747918 0.9999998140217803
900.2597796341213 0.9999998140219125
900.260679894351 0.9999998140220446
900.261580155481 0.9999998140221769
900.2624804175114 0.999999814022309
900.2633806804417 0.9999998140224412
900.2642809442725 0.9999998140225733
900.2651812090035 0.9999998140227054
900.266081474635 0.9999998140228376
900.2669817411663 0.9999998140229698
900.2678820085983 0.9999998140231019
900.2687822769304 0.9999998140232341
900.2696825461628 0.9999998140233664
900.2705828162955 0.9999998140234986
900.2714830873283 0.9999998140236308
900.2723833592615 0.9999998140237629
900.273283632095 0.9999998140238952
900.2741839058286 0.9999998140240273
900.2750841804626 0.9999998140241595
900.275984455997 0.9999998140242916
900.2768847324317 0.9999998140244238
900.2777850097663 0.9999998140245561
900.2786852880015 0.9999998140246882
900.2795855671369 0.9999998140248204
900.2804858471725 0.9999998140249525
900.2813861281085 0.9999998140250849
900.2822864099447 0.999999814025217
900.2831866926813 0.9999998140253492
900.2840869763181 0.9999998140254814
900.2849872608552 0.9999998140256137
900.2858875462927 0.9999998140257459
900.2867878326304 0.999999814025878
900.2876881198681 0.9999998140260101
900.2885884080065 0.9999998140261424
900.2894886970449 0.9999998140262746
900.2903889869838 0.9999998140264068
900.2912892778226 0.9999998140265389
900.292189569562 0.9999998140266714
900.2930898622019 0.9999998140268036
900.2939901557417 0.9999998140269357
900.2948904501819 0.999999814027068
900.2957907455225 0.9999998140272002
900.2966910417633 0.9999998140273323
900.2975913389042 0.9999998140274645
900.2984916369458 0.9999998140275969
900.2993919358875 0.999999814027729
900.3002922357296 0.9999998140278612
900.3011925364718 0.9999998140279934
900.3020928381144 0.9999998140281257
900.3029931406575 0.9999998140282581
900.3038934441007 0.9999998140283902
900.3047937484444 0.9999998140285224
900.3056940536881 0.9999998140286547
900.3065943598324 0.9999998140287869
900.3074946668769 0.9999998140289191
900.3083949748217 0.9999998140290514
900.309295283667 0.9999998140291836
900.3101955934121 0.9999998140293159
900.3110959040579 0.999999814029448
900.3119962156038 0.9999998140295804
900.3128965280501 0.9999998140297126
900.3137968413969 0.9999998140298448
900.3146971556439 0.9999998140299772
900.3155974707911 0.9999998140301095
900.3164977868386 0.9999998140302417
900.3173981037866 0.999999814030374
900.3182984216348 0.9999998140305061
900.3191987403833 0.9999998140306384
900.3200990600324 0.9999998140307707
900.3209993805816 0.9999998140309029
900.321899702031 0.9999998140310351
900.3228000243807 0.9999998140311674
900.323700347631 0.9999998140312997
900.3246006717815 0.999999814031432
900.3255009968323 0.9999998140315642
900.3264013227833 0.9999998140316966
900.3273016496348 0.9999998140318288
900.3282019773867 0.9999998140319611
900.3291023060387 0.9999998140320934
900.3300026355911 0.9999998140322257
900.3309029660439 0.9999998140323578
900.331803297397 0.9999998140324902
900.3327036296505 0.9999998140326225
900.3336039628042 0.9999998140327638
900.3345042968583 0.999999814032913
900.3354046318127 0.9999998140330622
900.3363049676675 0.9999998140332115
900.3372053044228 0.9999998140333606
900.3381056420781 0.9999998140335099
900.3390059806339 0.999999814033659
900.33990632009 0.9999998140338082
900.3408066604466 0.9999998140339574
900.3417070017032 0.9999998140341066
900.3426073438604 0.999999814034256
900.343507686918 0.9999998140344051
900.3444080308757 0.9999998140345543
900.3453083757339 0.9999998140347036
900.3462087214925 0.9999998140348527
900.3471090681511 0.9999998140350019
900.3480094157104 0.9999998140351513
900.34890976417 0.9999998140353004
900.3498101135299 0.9999998140354497
900.3507104637902 0.9999998140355989
900.3516108149508 0.9999998140357481
900.3525111670116 0.9999998140358972
900.353411519973 0.9999998140360464
900.3543118738346 0.9999998140361958
900.3552122285967 0.999999814036345
900.3561125842591 0.9999998140364942
900.3570129408217 0.9999998140366434
900.3579132982849 0.9999998140367926
900.3588136566484 0.9999998140369419
900.3597140159121 0.9999998140370912
900.3606143760762 0.9999998140372405
900.3615147371407 0.9999998140373897
900.3624150991056 0.9999998140375389
900.3633154619708 0.9999998140376881
900.3642158257364 0.9999998140378373
900.3651161904023 0.9999998140379867
900.3660165559686 0.9999998140381359
900.3669169224354 0.9999998140382851
900.3678172898025 0.9999998140384344
900.3687176580698 0.9999998140385835
900.3696180272376 0.9999998140387328
900.370518397306 0.9999998140388835
900.3714187682745 0.9999998140390405
900.3723191401434 0.9999998140391975
900.3732195129127 0.9999998140393545
900.3741198865823 0.9999998140395113
900.3750202611524 0.9999998140396684
900.3759206366227 0.9999998140398253
900.3768210129937 0.9999998140399823
900.3777213902647 0.9999998140401392
900.3786217684362 0.9999998140402963
900.3795221475082 0.9999998140404532
900.3804225274805 0.9999998140406102
900.3813229083532 0.9999998140407671
900.3822232901261 0.9999998140409241
900.3831236727998 0.9999998140410812
900.3840240563736 0.999999814041238
900.3849244408478 0.999999814041395
900.3858248262225 0.9999998140415519
900.3867252124975 0.999999814041709
900.3876255996728 0.999999814041866
900.3885259877486 0.999999814042023
900.3894263767248 0.9999998140421799
900.3903267666016 0.999999814042337
900.3912271573782 0.9999998140424939
900.3921275490555 0.9999998140426509
900.3930279416334 0.9999998140428079
900.3939283351115 0.9999998140429649
900.3948287294899 0.9999998140431219
900.3957291247688 0.9999998140432788
900.3966295209481 0.9999998140434359
900.3975299180277 0.9999998140435928
900.3984303160078 0.9999998140437499
900.3993307148883 0.9999998140439067
900.4002311146692 0.9999998140440639
900.4011315153505 0.9999998140442208
900.4020319169321 0.9999998140443779
900.402932319414 0.9999998140445346
900.4038327227967 0.9999998140446918
900.4047331270797 0.9999998140448488
900.405633532263 0.9999998140450057
900.4065339383466 0.9999998140451628
900.4074343453307 0.9999998140453198
900.4083347532152 0.9999998140454768
900.4092351620001 0.9999998140456338
900.4101355716855 0.9999998140457909
900.4110359822713 0.9999998140459477
900.4119363937574 0.9999998140461048
900.4128368061439 0.9999998140462618
900.4137372194309 0.9999998140464189
900.4146376336182 0.9999998140465759
900.4155380487061 0.9999998140467329
900.4164384646944 0.9999998140468899
900.4173388815831 0.9999998140470469
900.4182392993721 0.9999998140472038
900.4191397180616 0.9999998140473608
900.4200401376515 0.9999998140475179
900.4209405581418 0.9999998140476749
900.4218409795324 0.999999814047832
900.4227414018235 0.999999814047989
900.423641825015 0.999999814048146
900.424542249107 0.9999998140483031
900.4254426740995 0.9999998140484601
900.4263430999921 0.999999814048617
900.4272435267856 0.999999814048774
900.4281439544791 0.9999998140489311
900.4290443830733 0.9999998140490881
900.4299448125679 0.9999998140492452
900.4308452429628 0.9999998140494021
900.4317456742582 0.9999998140495592
900.4326461064541 0.9999998140497162
900.4335465395504 0.9999998140498733
900.4344469735471 0.9999998140500304
900.4353474084443 0.9999998140501873
900.4362478442418 0.9999998140503444
900.4371482809398 0.9999998140505014
900.4380487185383 0.9999998140506584
900.4389491570372 0.9999998140508154
900.4398495964364 0.9999998140509726
900.4407500367362 0.9999998140511295
900.4416504779364 0.9999998140512866
900.4425509200371 0.9999998140514436
900.4434513630382 0.9999998140516008
900.4443518069397 0.9999998140517578
900.4452522517419 0.9999998140519147
900.4461526974443 0.9999998140520718
900.4470531440471 0.9999998140522288
900.4479535915502 0.9999998140523859
900.448854039954 0.999999814052543
900.4497544892585 0.9999998140527001
900.4506549394631 0.9999998140528571
900.4515553905683 0.9999998140530141
900.4524558425738 0.9999998140531712
900.4533562954798 0.9999998140533283
900.4542567492863 0.9999998140534854
900.4551572039933 0.9999998140536422
900.4560576596007 0.9999998140537995
900.4569581161086 0.9999998140539564
900.4578585735169 0.9999998140541135
900.4587590318256 0.9999998140542705
900.4596594910348 0.9999998140544276
900.4605599511445 0.9999998140545847
900.4614604121547 0.9999998140547418
900.4623608740653 0.9999998140548988
900.4632613368763 0.9999998140550559
900.4641618005877 0.999999814055213
900.4650622651999 0.99999981405537
900.4659627307124 0.9999998140555271
900.4668631971253 0.999999814055684
900.4677636644387 0.9999998140558413
900.4686641326526 0.9999998140559982
900.4695646017668 0.9999998140561553
900.4704650717817 0.9999998140563123
900.4713655426972 0.9999998140564695
900.4722660145127 0.9999998140566265
900.473166487229 0.9999998140567836
900.4740669608458 0.9999998140569406
900.4749674353628 0.9999998140570978
900.4758679107805 0.9999998140572549
900.4767683870987 0.9999998140574119
900.4776688643173 0.9999998140575691
900.4785693424363 0.9999998140577261
900.479469821456 0.9999998140578833
900.4803703013758 0.9999998140580403
900.4812707821965 0.9999998140581974
900.4821712639174 0.9999998140583544
900.4830717465388 0.9999998140585116
900.4839722300608 0.9999998140586687
900.4848727144832 0.9999998140588258
900.4857731998062 0.9999998140589829
