Atmospheric Species: CH4_CO_CO2_H2O_NH3
Metallicity: 10
C/O_Ratio: 1.0
Wavelength[nm] Flux_variation
2199.999397930935 0.9997255362510593
2200.001597931433 0.9997492587138477
2200.003797934131 0.9997710955897691
2200.0059979390285 0.9997954462496703
2200.0081979461265 0.9998286123832065
2200.010397955424 0.999872538375057
2200.0125979669224 0.99992037632967
2200.01479798062 0.9999501747004128
2200.016997996518 0.9999457262166818
2200.019198014616 0.9999216730046379
2200.021398034914 0.9998911156347765
2200.023598057412 0.9998555979229871
2200.0257980821098 0.9998197111951986
2200.027998109008 0.9997921671535325
2200.030198138106 0.9997784452496083
2200.032398169404 0.9997803823546201
2200.034598202902 0.9997979216698691
2200.0367982386 0.9998291640211264
2200.0389982764987 0.9998677172488175
2200.041198316597 0.9998991371696718
2200.043398358895 0.9999140471893219
2200.0455984033933 0.999922966231854
2200.0477984500917 0.9999352852704368
2200.04999849899 0.9999504223517921
2200.052198550088 0.9999596094980016
2200.0543986033867 0.9999522696457555
2200.0565986588854 0.9999321264988524
2200.058798716584 0.9999105504052506
2200.0609987764824 0.9998937180149222
2200.0631988385812 0.9998844154294749
2200.06539890288 0.9998840070253191
2200.0675989693787 0.9998920753426577
2200.0697990380777 0.9999051519956462
2200.071999108977 0.999912040838761
2200.074199182076 0.9998847845529613
2200.076399257375 0.9998220868068075
2200.078599334874 0.9997593727632741
2200.0807994145734 0.9997111026468897
2200.082999496473 0.9996795988367104
2200.0851995805724 0.9996648923622011
2200.087399666872 0.9996669364397822
2200.0895997553716 0.999685645874601
2200.0917998460714 0.9997208110250586
2200.093999938971 0.9997715531501453
2200.096200034071 0.9998336792995852
2200.098400131371 0.9998955393775515
2200.100600230871 0.9999387812392991
2200.1028003325714 0.9999546433785974
2200.1050004364715 0.9999523344670324
2200.107200542572 0.9999423810107541
2200.1094006508724 0.9999320462443946
2200.111600761373 0.999926061130314
2200.113800874074 0.9999253208124492
2200.116000988975 0.9999255294639655
2200.118201106076 0.9999196298933999
2200.120401225377 0.9999079187206388
2200.1226013468786 0.9998986813279531
2200.1248014705798 0.9998981788435028
2200.1270015964815 0.9999072513798023
2200.129201724583 0.9999208836756528
2200.1314018548846 0.9999303165717829
2200.1336019873866 0.9999313450340429
2200.1358021220885 0.9999240270776831
2200.1380022589906 0.999909303139296
2200.1402023980927 0.9998939203985794
2200.1424025393953 0.9998857361565288
2200.1446026828976 0.9998868677101537
2200.1468028286004 0.9998853289766734
2200.149002976503 0.9998535911683144
2200.151203126606 0.99980420155137
2200.1534032789095 0.9997630281217665
2200.1556034334126 0.9997370968125725
2200.157803590116 0.9997274654782619
2200.16000374902 0.999734267303217
2200.162203910123 0.9997574563012274
2200.1644040734272 0.9997961789371502
2200.1666042389315 0.9998455987051974
2200.168804406636 0.9998890547193441
2200.17100457654 0.9999065797282098
2200.173204748645 0.9999082733613834
2200.1754049229494 0.9999069534548136
2200.1776050994545 0.9998934697582947
2200.179805278159 0.999857394457671
2200.182005459065 0.9998167002524022
2200.18420564217 0.9997846164088663
2200.186405827476 0.9997573774272025
2200.188606014982 0.999722900243334
2200.1908062046878 0.9996828251052299
2200.193006396594 0.9996501450687234
2200.1952065907003 0.9996316948612342
2200.197406787007 0.9996295339370562
2200.1996069855136 0.9996441282522684
2200.201807186221 0.9996754176174141
2200.204007389128 0.9997234039915096
2200.2062075942354 0.9997868865957701
2200.208407801543 0.999851498046753
2200.2106080110507 0.9998779901853184
2200.2128082227587 0.999874960238012
2200.215008436667 0.999863862852723
2200.2172086527758 0.9998431602388033
2200.2194088710844 0.9998221890952408
2200.221609091593 0.9998122417787771
2200.2238093143023 0.9998175614309505
2200.2260095392116 0.9998380643387964
2200.228209766321 0.9998682078372703
2200.230409995631 0.9998903991270918
2200.232610227141 0.9998924517106974
2200.2348104608513 0.9998908493211225
2200.237010696762 0.9998983870831408
2200.2392109348725 0.9999166749423153
2200.2414111751837 0.9999411193810662
2200.243611417695 0.9999623209121097
2200.245811662406 0.9999723502968476
2200.248011909318 0.99996857792339
2200.25021215843 0.9999490640398614
2200.2524124097417 0.9999183215210848
2200.254612663254 0.9998886302685179
2200.256812918967 0.9998688422322107
2200.2590131768798 0.9998623321215224
2200.2612134369933 0.9998694438599596
2200.2634136993065 0.9998884589161222
2200.26561396382 0.9999149652610974
2200.2678142305344 0.9999405406792273
2200.2700144994487 0.9999523461317114
2200.272214770563 0.9999253976346812
2200.274415043878 0.9998569954714743
2200.2766153193934 0.9997868802140871
2200.2788155971084 0.9997311810072262
2200.281015877024 0.999692588346209
2200.28321615914 0.9996710072682715
2200.2854164434566 0.9996661850825757
2200.287616729973 0.9996778349660717
2200.2898170186895 0.9997047936380412
2200.2920173096068 0.9997420718535226
2200.294217602724 0.9997756657115482
2200.296417898042 0.9997968199700143
2200.29861819556 0.9998181434546897
2200.3008184952782 0.9998459476070428
2200.3030187971967 0.999851582649504
2200.3052191013153 0.9998102353335715
2200.307419407635 0.9997658951422774
2200.309619716154 0.9997364947557861
2200.3118200268736 0.9997236844183826
2200.314020339794 0.9997260620262776
2200.3162206549146 0.9997374750543496
2200.3184209722353 0.9997430752848059
2200.320621291756 0.9997372844467601
2200.3228216134776 0.9997346296926546
2200.3250219373995 0.9997452470197934
2200.3272222635214 0.9997718955461897
2200.3294225918435 0.9998143616306164
2200.3316229223665 0.9998681581123235
2200.3338232550896 0.999911932298445
2200.3360235900127 0.9999136165734055
2200.3382239271364 0.9998975837253328
2200.34042426646 0.999888641610168
2200.342624607985 0.9998910209967836
2200.3448249517096 0.9999035032364177
2200.3470252976344 0.9999225923085457
2200.34922564576 0.9999411084601544
2200.3514259960857 0.9999476920246875
2200.3536263486117 0.999939010074788
2200.355826703338 0.9999241676043551
2200.3580270602647 0.9999064430651489
2200.3602274193922 0.9998734006562195
2200.36242778072 0.9998182609181077
2200.3646281442475 0.9997607538260658
2200.3668285099757 0.9997155217430311
2200.3690288779044 0.9996864122384232
2200.371229248033 0.9996739764291765
2200.3734296203625 0.999678232636186
2200.3756299948923 0.9996987575887034
2200.377830371622 0.9997331891500358
2200.3800307505526 0.9997715868584635
2200.3822311316835 0.9997971474435916
2200.3844315150145 0.9998135896034025
2200.386631900546 0.999833894791691
2200.388832288278 0.9998557853900599
2200.3910326782106 0.9998707988265441
2200.3932330703433 0.9998825744430911
2200.3954334646764 0.9998973358566521
2200.39763386121 0.9999032996703752
2200.399834259944 0.9998810270828192
2200.402034660878 0.9998483537122496
2200.404235064013 0.9998253351239167
2200.4064354693483 0.9998169910762891
2200.4086358768836 0.9998227943178827
2200.4108362866195 0.9998387590734025
2200.413036698556 0.9998579608236261
2200.415237112693 0.9998763411915917
2200.4174375290304 0.9998937284901046
2200.419637947568 0.9998910860269292
2200.421838368306 0.999842258152134
2200.4240387912446 0.9997810217183929
2200.4262392163832 0.9997311969706781
2200.428439643723 0.9996974930542141
2200.430640073262 0.9996804552973997
2200.432840505003 0.999680027422812
2200.435040938943 0.999695874993099
2200.4372413750843 0.999725912668826
2200.4394418134257 0.9997549826591436
2200.4416422539675 0.9997441498392389
2200.4438426967104 0.9997112209025381
2200.4460431416533 0.9996880896881291
2200.4482435887962 0.9996808914558949
2200.45044403814 0.9996903414101143
2200.452644489684 0.9997165151760964
2200.4548449434287 0.9997592338430074
2200.457045399374 0.9998168174573995
2200.4592458575194 0.9998826895005954
2200.4614463178655 0.9999419719417327
2200.463646780412 0.999978727296389
2200.465847245159 0.9999945325157654
2200.468047712106 1.0
2200.470248181254 0.9999983978353649
2200.4724486526025 0.999981128239393
2200.4746491261512 0.9999417235092809
2200.4768496019005 0.9998923975335474
2200.4790500798504 0.9998464297641506
2200.4812505600003 0.9998096017026598
2200.483451042351 0.9997837918574379
2200.4856515269025 0.9997692876899432
2200.487852013654 0.9997663539567503
2200.4900525026064 0.9997758453235851
2200.492252993759 0.9997986918641518
2200.494453487112 0.9998342883191683
2200.4966539826655 0.9998770917188325
2200.49885448042 0.9999147681053794
2200.5010549803746 0.9999412335952885
2200.5032554825298 0.9999609548161215
2200.5054559868854 0.9999688269915649
2200.5076564934416 0.9999575247934087
2200.5098570021983 0.9999359197000425
2200.5120575131555 0.9999120822104568
2200.514258026313 0.9998821167338855
2200.5164585416715 0.9998445357253339
2200.5186590592302 0.9998089114431682
2200.5208595789895 0.9997838355507713
2200.5230601009494 0.9997724730169686
2200.5252606251097 0.9997733293395971
2200.5274611514706 0.9997745655733877
2200.529661680032 0.9997554239006984
2200.531862210794 0.9997250656240246
2200.5340627437563 0.9997032054374159
2200.5362632789193 0.9996941961278761
2200.5384638162827 0.9996922542932043
2200.5406643558467 0.9996842969354447
2200.5428648976113 0.9996675819257792
2200.5450654415763 0.9996536555138769
2200.547265987742 0.9996496933444352
2200.549466536108 0.9996574949469392
2200.5516670866746 0.9996772258245821
2200.553867639442 0.9997070582911707
2200.55606819441 0.9997342521371868
2200.5582687515785 0.9997315398028356
2200.560469310947 0.9997109501105795
2200.562669872517 0.9996982311892061
2200.564870436287 0.9997006164248847
2200.5670710022578 0.9997195089393163
2200.5692715704286 0.9997551235169282
2200.571472140801 0.9998040687865853
2200.573672713373 0.999838752562
2200.575873288146 0.9998245246972738
2200.578073865119 0.9998022717274261
2200.5802744442935 0.9997939381219152
2200.5824750256684 0.9998019966887239
2200.5846756092433 0.999825693184337
2200.586876195019 0.9998612621721246
2200.5890767829956 0.9998989408641715
2200.5912773731725 0.9999276460687578
2200.59347796555 0.9999468959812129
2200.5956785601284 0.9999567271967783
2200.597879156907 0.9999543043444913
2200.6000797558863 0.9999442005000584
2200.6022803570663 0.9999315257433453
2200.604480960447 0.9999142954472268
2200.6066815660283 0.9998864845230637
2200.60888217381 0.9998518079013332
2200.611082783792 0.9998222617004693
2200.613283395975 0.9998054885366476
2200.6154840103586 0.9998041805125935
2200.617684626943 0.9998188484492696
2200.619885245728 0.9998486719842511
2200.6220858667134 0.999890373918325
2200.6242864898995 0.9999344427086403
2200.626487115286 0.9999613695625407
2200.6286877428734 0.9999592245833309
2200.6308883726615 0.9999421166605265
2200.63308900465 0.999924579258856
2200.6352896388394 0.9999124859926044
2200.637490275229 0.9999075561454049
2200.63969091382 0.9999094660009052
2200.641891554611 0.9999158381211207
2200.6440921976027 0.9999226752670791
2200.646292842795 0.9999271039193213
2200.6484934901882 0.9999276577821464
2200.650694139782 0.999921203573142
2200.6528947915763 0.9999073127672677
2200.655095445571 0.9998930722764796
2200.657296101767 0.9998847146292804
2200.659496760163 0.9998830201875673
2200.66169742076 0.9998865336836004
2200.663898083558 0.9998951581552057
2200.6660987485557 0.9999094314357729
2200.668299415755 0.9999270483238479
2200.6705000851543 0.999939015487818
2200.6727007567547 0.9999256914918719
2200.6749014305556 0.9998856150668243
2200.677102106557 0.9998449000208682
2200.67930278476 0.9998169904983782
2200.6815034651627 0.9998051723962328
2200.6837041477665 0.9998100222204577
2200.685904832571 0.9998311909109351
2200.6881055195763 0.9998671095819055
2200.6903062087817 0.9999129041663671
2200.6925069001886 0.9999551606336413
2200.6947075937956 0.9999741143396963
2200.6969082896035 0.999968716461711
2200.699108987612 0.9999508527107653
2200.701309687821 0.9999306580025951
2200.7035103902313 0.9999153512479059
2200.7057110948417 0.999906753796315
2200.707911801653 0.999898547698066
2200.710112510665 0.999873302189397
2200.7123132218776 0.999819778974533
2200.7145139352915 0.9997573693432621
2200.7167146509055 0.9997049044960494
2200.7189153687204 0.9996680541746301
2200.721116088736 0.9996477118733051
2200.7233168109524 0.9996441238766418
2200.72551753537 0.9996573675002678
2200.7277182619873 0.9996873555074939
2200.729918990806 0.9997340221114243
2200.7321197218253 0.9997959500869772
2200.7343204550452 0.999863033414818
2200.736521190466 0.9999068792433444
2200.7387219280877 0.9999179541657081
2200.7409226679097 0.999919923571478
2200.7431234099327 0.9999232151570282
2200.7453241541566 0.9999257490926935
2200.747524900581 0.9999233030629446
2200.749725649206 0.9999170488579558
2200.751926400032 0.999910528916224
2200.754127153059 0.9999035614205057
2200.7563279082865 0.9998930106699353
2200.7585286657145 0.9998782434497303
2200.7607294253435 0.9998622037605751
2200.7629301871734 0.9998493043388326
2200.765130951204 0.9998439294315349
2200.767331717435 0.9998474607881442
2200.769532485867 0.9998547333869224
2200.7717332565 0.9998551403551263
2200.7739340293333 0.999846659477574
2200.7761348043678 0.999836716215474
2200.7783355816027 0.9998288342895623
2200.7805363610387 0.9998236563891156
2200.782737142675 0.9998233191008554
2200.7849379265126 0.9998309865599021
2200.787138712551 0.9998490065222241
2200.78933950079 0.9998776623993786
2200.79154029123 0.9999125211956071
2200.7937410838704 0.9999395641054843
2200.795941878712 0.9999469939950774
2200.798142675754 0.9999454351122053
2200.800343474997 0.9999455187919222
2200.802544276441 0.9999476733350511
2200.804745080086 0.9999504128648348
2200.806945885931 0.9999554592113354
2200.8091466939773 0.9999645288470174
2200.811347504224 0.9999743466902338
2200.813548316672 0.9999768959289763
2200.8157491313204 0.9999705382591849
2200.8179499481703 0.9999635426233218
2200.8201507672206 0.9999619164920247
2200.8223515884715 0.9999658557010729
2200.8245524119234 0.9999722676904141
2200.826753237576 0.9999757938909081
2200.8289540654296 0.9999710399408864
2200.8311548954844 0.9999598821547275
2200.833355727739 0.9999499443073637
2200.8355565621955 0.9999454621626842
2200.8377573988523 0.9999445599493078
2200.83995823771 0.9999405878610851
2200.842159078769 0.9999292362511423
2200.844359922028 0.9999146263629524
2200.8465607674884 0.9999027537978715
2200.8487616151497 0.9998967356404392
2200.850962465012 0.999897826550501
2200.853163317074 0.9999049409738852
2200.855364171338 0.9999113011083121
2200.8575650278026 0.9999083303565237
2200.8597658864683 0.9999005268419523
2200.8619667473345 0.9998985896883672
2200.864167610401 0.9999070284776936
2200.8663684756693 0.9999243280666598
2200.8685693431385 0.9999441076521267
2200.870770212808 0.9999586201141937
2200.8729710846787 0.9999658901233838
2200.87517195875 0.9999675604964368
2200.8773728350225 0.9999624200140186
2200.8795737134956 0.9999484336458211
2200.8817745941697 0.9999271984156938
2200.8839754770443 0.9999029030134977
2200.8861763621203 0.9998795931240286
2200.888377249397 0.999860827911625
2200.890578138875 0.9998500601666805
2200.8927790305534 0.9998501692142584
2200.8949799244324 0.9998627703704663
2200.897180820513 0.9998877592426392
2200.899381718794 0.9999223582118304
2200.901582619276 0.9999567500262706
2200.903783521959 0.9999695683846452
2200.905984426843 0.9999583982618611
2200.908185333928 0.9999450217510615
2200.9103862432135 0.9999396111706785
2200.9125871547003 0.9999419469117262
2200.9147880683877 0.999948104632745
2200.916988984276 0.9999552204801023
2200.9191899023654 0.999963136032302
2200.921390822655 0.9999695916947848
2200.9235917451465 0.9999691659916113
2200.9257926698388 0.9999611623903131
2200.9279935967315 0.9999496065474844
2200.9301945258253 0.9999367482723719
2200.9323954571205 0.9999219739972489
2200.934596390616 0.9998996069994533
2200.936797326313 0.9998641988305159
2200.9389982642106 0.9998253088447054
2200.941199204309 0.9997957458504464
2200.9434001466084 0.9997810808087265
2200.945601091109 0.9997827181215138
2200.9478020378106 0.9998004484477149
2200.9500029867127 0.9998323703843884
2200.952203937816 0.9998725386855679
2200.9544048911207 0.9999077757263758
2200.9566058466257 0.9999226010847202
2200.958806804332 0.9999162234695259
2200.9610077642396 0.9999021504489969
2200.9632087263476 0.9998917683679382
2200.9654096906565 0.9998900646322242
2200.967610657167 0.9998969856358908
2200.969811625878 0.9999056821918608
2200.9720125967897 0.9999054410363316
2200.974213569903 0.9998980899574242
2200.976414545217 0.9998934279453461
2200.9786155227316 0.9998947277256055
2200.980816502448 0.9998997835300257
2200.9830174843646 0.9999024878349404
2200.9852184684823 0.9998955282540577
2200.9874194548015 0.9998827333433209
2200.989620443321 0.9998756929013154
2200.991821434042 0.9998809067714338
2200.994022426964 0.9998991144883055
2200.9962234220866 0.9999254450562468
2200.9984244194106 0.9999451485685652
2201.000625418935 0.9999432960260815
2201.002826420661 0.9999286235365755
2201.0050274245878 0.9999150935632003
2201.0072284307157 0.9999072417380702
2201.0094294390447 0.9999016633601154
2201.0116304495746 0.9998880433960698
2201.0138314623055 0.9998614079207585
2201.0160324772373 0.9998319206375026
2201.01823349437 0.9998100722549845
2201.020434513704 0.9998006545086859
2201.022635535239 0.9998052210048518
2201.0248365589746 0.9998224152069132
2201.027037584912 0.9998429203921889
2201.0292386130495 0.9998441873540661
2201.0314396433887 0.9998226874650007
2201.033640675929 0.9997999749912967
2201.03584171067 0.9997878387432426
2201.038042747612 0.9997900120838067
2201.0402437867556 0.9998076155195303
2201.0424448280996 0.9998402268720534
2201.044645871645 0.9998835418025532
2201.046846917391 0.9999162251038145
2201.0490479653386 0.9999039098723874
2201.051249015487 0.9998700752162435
2201.0534500678364 0.999841586973309
2201.055651122387 0.9998255106047776
2201.0578521791385 0.9998235063291543
2201.0600532380913 0.9998341955784631
2201.062254299245 0.9998503629236652
2201.0644553626 0.9998555715708833
2201.066656428156 0.999837505707536
2201.0688574959127 0.9998058776070515
2201.0710585658708 0.9997765294570453
2201.07325963803 0.9997579448819591
2201.07546071239 0.999753147185076
2201.077661788951 0.9997629673814803
2201.0798628677135 0.9997866812310139
2201.082063948677 0.9998188148372686
2201.0842650318414 0.9998422965084159
2201.086466117207 0.9998430466606744
2201.088667204773 0.9998289910935282
2201.090868294541 0.9998063415928705
2201.0930693865093 0.9997822203964165
2201.0952704806796 0.9997657828372019
2201.0974715770503 0.9997619774645353
2201.0996726756225 0.9997717094686458
2201.1018737763957 0.999792172708586
2201.10407487937 0.9998153068376243
2201.1062759845454 0.9998317684262741
2201.1084770919215 0.9998423821845563
2201.110678201499 0.9998548157633534
2201.112879313278 0.9998738995143198
2201.1150804272575 0.9998983173612778
2201.1172815434384 0.9999135705168586
2201.1194826618207 0.9998998190381215
2201.1216837824036 0.9998713188641809
2201.123884905188 0.9998481027016762
2201.1260860301736 0.9998359671304049
2201.12828715736 0.999834078534357
2201.1304882867475 0.9998385171956699
2201.132689418336 0.9998445132744839
2201.1348905521263 0.9998461072521128
2201.1370916881174 0.9998326253461473
2201.1392928263094 0.9998025781690029
2201.141493966703 0.9997711470206883
2201.1436951092974 0.9997491648342379
2201.145896254093 0.9997395186942942
2201.1480974010897 0.999741490885769
2201.1502985502875 0.9997520157651731
2201.1524997016863 0.9997629549656258
2201.1547008552866 0.9997595000966252
2201.1569020110883 0.999742046372246
2201.159103169091 0.9997277413393719
2201.161304329294 0.9997250890387859
2201.163505491699 0.9997332641409513
2201.165706656305 0.9997447454175423
2201.1679078231123 0.9997518066724347
2201.1701089921207 0.9997581078069253
