Atmospheric Species: CO
Metallicity: 1000
C/O_Ratio: 1.5
Wavelength[nm] Flux_variation
1699.999720594985 0.9999999998633335
1700.0014205955558 0.9999999999766266
1700.003120597826 1.0
1700.0048206017968 0.9999999999209152
1700.0065206074676 0.9999999997212969
1700.0082206148381 0.999999999375046
1700.0099206239088 0.9999999988436096
1700.0116206346793 0.9999999980706292
1700.0133206471498 0.9999999969691673
1700.0150206613202 0.9999999954023645
1700.016720677191 0.9999999931453614
1700.0184206947615 0.9999999898031238
1700.020120714032 0.9999999846188353
1700.0218207350024 0.999999976078616
1700.0235207576732 0.9999999614561286
1700.025220782044 0.9999999373450138
1700.0269208081147 0.9999999030242746
1700.0286208358855 0.99999986587955
1700.0303208653559 0.9999998417500522
1700.032020896527 0.9999998441212172
1700.0337209293978 0.9999998714724067
1700.0354209639686 0.9999999088063968
1700.0371210002395 0.999999941281446
1700.0388210382105 0.9999999632319574
1700.0405210778813 0.9999999762361416
1700.0422211192524 0.9999999837253479
1700.0439211623234 0.9999999882010315
1700.0456212070944 0.9999999910070975
1700.0473212535655 0.999999992815152
1700.0490213017365 0.9999999939808836
1700.050721351608 0.9999999947097881
1700.0524214031793 0.9999999951282963
1700.0541214564507 0.9999999953163883
1700.0558215114222 0.9999999953277604
1700.0575215680938 0.9999999951986035
1700.0592216264656 0.9999999949539827
1700.0609216865369 0.9999999946116571
1700.0626217483084 0.9999999941844668
1700.0643218117798 0.9999999936816225
1700.0660218769517 0.9999999931098991
1700.0677219438237 0.9999999924742791
1700.0694220123955 0.9999999917782735
1700.0711220826677 0.999999991024398
1700.0728221546399 0.9999999902143777
1700.0745222283117 0.9999999893492428
1700.0762223036838 0.9999999884295077
1700.0779223807563 0.9999999874552579
1700.0796224595285 0.9999999864261743
1700.081322540001 0.9999999853415648
1700.0830226221735 0.9999999842004937
1700.084722706046 0.9999999830016877
1700.0864227916188 0.999999981743631
1700.0881228788917 0.9999999804246313
1700.0898229678646 0.9999999790428493
1700.0915230585374 0.9999999775960798
1700.0932231509105 0.9999999760817715
1700.0949232449836 0.9999999744968142
1700.0966233407569 0.9999999728378343
1700.0983234382302 0.9999999711012182
1700.1000235374036 0.9999999692824245
1700.101723638277 0.9999999673778872
1700.1034237408508 0.9999999653822509
1700.1051238451244 0.9999999632900538
1700.106823951098 0.9999999610951087
1700.108524058772 0.9999999587904174
1700.1102241681463 0.9999999563681884
1700.1119242792201 0.9999999538194946
1700.1136243919946 0.999999951134295
1700.1153245064686 0.9999999483010532
1700.1170246226434 0.9999999453065174
1700.118724740518 0.9999999421352839
1700.1204248600927 0.9999999387695082
1700.1221249813675 0.9999999351881208
1700.1238251043426 0.9999999313663355
1700.1255252290177 0.9999999272743748
1700.1272253553927 0.9999999228765851
1700.1289254834683 0.9999999181294204
1700.1306256132436 0.9999999129792817
1700.1323257447189 0.9999999073594388
1700.134025877895 0.9999999011856967
1700.1357260127709 0.9999998943496998
1700.137426149347 0.9999998867127139
1700.1391262876232 0.9999998780892705
1700.1408264275992 0.9999998682305813
1700.1425265692758 0.9999998567957531
1700.1442267126522 0.9999998433069184
1700.1459268577291 0.9999998270791121
1700.147627004506 0.9999998071165485
1700.149327152983 0.9999997819168861
1700.1510273031602 0.9999997491229542
1700.1527274550374 0.9999997046914064
1700.154427608615 0.9999996409164116
1700.1561277638923 0.9999995430829198
1700.1578279208704 0.9999993886825655
1700.1595280795482 0.9999991606703984
1700.1612282399262 0.99999887996829
1700.1629284020044 0.999998628408273
1700.1646285657832 0.999998513486511
1700.1663287312617 0.9999985885403655
1700.1680288984403 0.9999988082927572
1700.169729067319 0.9999990680839057
1700.171429237898 0.9999992822843711
1700.1731294101774 0.9999994233581542
1700.174829584157 0.9999995036301165
1700.1765297598363 0.9999995439534107
1700.1782299372162 0.9999995585565007
1700.1799301162962 0.9999995534817224
1700.1816302970763 0.9999995288108278
1700.1833304795568 0.9999994822683861
1700.1850306637373 0.9999994152168843
1700.186730849618 0.9999993375560189
1700.1884310371988 0.9999992621468746
1700.1901312264797 0.9999991876236441
1700.1918314174611 0.9999990886012756
1700.1935316101426 0.9999989354936916
1700.1952318045244 0.9999987362465914
1700.196932000606 0.9999985571088481
1700.1986321983882 0.9999984855928951
1700.2003323978704 0.9999985620678372
1700.202032599053 0.9999987470959839
1700.2037328019355 0.9999989564089573
1700.2054330065184 0.9999991238244271
1700.2071332128014 0.999999230626806
1700.208833420785 0.9999992893843824
1700.210533630468 0.9999993181185116
1700.2122338418515 0.9999993286341438
1700.2139340549356 0.999999326757449
1700.2156342697199 0.999999314808726
1700.2173344862042 0.9999992930746422
1700.2190347043886 0.9999992602539425
1700.2207349242735 0.9999992148304225
1700.2224351458585 0.9999991588492331
1700.2241353691436 0.9999991011921838
1700.2258355941292 0.9999990534304188
1700.2275358208146 0.9999990190259745
1700.2292360492004 0.9999989889305008
1700.2309362792867 0.9999989498757696
1700.232636511073 0.9999988944655748
1700.2343367445594 0.9999988234184766
1700.236036979746 0.9999987422842997
1700.2377372166331 0.9999986567834829
1700.2394374552205 0.9999985685169693
1700.241137695508 0.9999984736955569
1700.2428379374958 0.9999983660929179
1700.2445381811838 0.9999982407936128
1700.246238426572 0.99999809519571
1700.2479386736607 0.9999979276269019
1700.2496389224493 0.9999977359345863
1700.2513391729383 0.9999975169545453
1700.2530394251273 0.9999972664758001
1700.2547396790171 0.999996979246068
1700.2564399346068 0.9999966489030517
1700.2581401918967 0.9999962676436138
1700.2598404508867 0.9999958265592541
1700.2615407115777 0.9999953145471779
1700.263240973968 0.9999947176969641
1700.2649412380592 0.9999940157214138
1700.2666415038505 0.9999931698613972
1700.2683417713422 0.9999920955695901
1700.2700420405338 0.9999906531577699
1700.2717423114264 0.9999887881488565
1700.2734425840185 0.9999867804874042
1700.275142858311 0.9999850637121375
1700.276843134304 0.9999838464480433
1700.2785434119971 0.9999832001551138
1700.2802436913905 0.9999831765910734
1700.2819439724844 0.999983779761038
1700.2836442552784 0.9999849632083514
1700.2853445397727 0.9999866607592861
1700.2870448259675 0.9999886771018961
1700.2887451138624 0.9999905735225486
1700.2904454034576 0.9999920412830319
1700.2921456947531 0.9999931274666124
1700.2938459877491 0.9999939796574256
1700.2955462824452 0.9999946869577966
1700.2972465788416 0.9999952887979148
1700.2989468769385 0.9999958053462559
1700.3006471767358 0.9999962505118327
1700.3023474782328 0.9999966355013555
1700.3040477814307 0.9999969693213198
1700.3057480863285 0.9999972599170756
1700.3074483929267 0.9999975138003259
1700.3091487012252 0.9999977364439555
1700.3108490112243 0.9999979324304551
1700.3125493229234 0.9999981056017588
1700.3142496363225 0.9999982591797331
1700.3159499514227 0.9999983958750732
1700.3176502682227 0.9999985179695696
1700.3193505867227 0.9999986273900587
1700.3210509069238 0.9999987257689514
1700.3227512288247 0.9999988144914782
1700.324451552426 0.9999988947403196
1700.3261518777274 0.9999989675229621
1700.3278522047294 0.9999990337088505
1700.3295525334318 0.9999990940398931
1700.3312528638346 0.9999991491605893
1700.3329531959375 0.9999991996264818
1700.334653529741 0.9999992459198881
1700.3363538652445 0.9999992884600869
1700.3380542024483 0.9999993276099399
1700.3397545413527 0.9999993636869527
1700.3414548819576 0.9999993969671376
1700.3431552242623 0.9999994276890694
1700.3448555682678 0.9999994560568516
1700.3465559139734 0.9999994822468786
1700.3482562613794 0.9999995064287239
1700.3499566104858 0.9999995286644121
1700.3516569612923 0.9999995490701974
1700.3533573137995 0.9999995676946319
1700.355057668007 0.9999995845490964
1700.3567580239148 0.9999995995897476
1700.358458381523 0.9999996127018884
1700.360158740831 0.9999996236611082
1700.3618591018403 0.999999632076404
1700.3635594645496 0.9999996372795665
1700.365259828959 0.9999996380965044
1700.366960195069 0.9999996323278184
1700.3686605628795 0.9999996156879192
1700.37036093239 0.9999995805529516
1700.372061303601 0.9999995170446452
1700.3737616765122 0.9999994205396158
1700.3754620511243 0.9999993030904805
1700.3771624274364 0.9999991936530763
1700.378862805449 0.9999991198301108
1700.380563185162 0.9999990952978034
1700.3822635665754 0.9999991293736806
1700.383963949689 0.9999992274308322
1700.385664334503 0.9999993696261404
1700.3873647210175 0.9999995123138464
1700.3890651092324 0.9999996218739404
1700.3907654991474 0.9999996933057538
1700.392465890763 0.9999997379851555
1700.3941662840791 0.9999997675688866
1700.3958666790954 0.9999997888848868
1700.3975670758123 0.9999998052571647
1700.3992674742296 0.9999998183620944
1700.400967874347 0.9999998291590767
1700.402668276165 0.9999998382598005
1700.4043686796833 0.9999998460705459
1700.4060690849024 0.9999998528698548
1700.4077694918215 0.999999858852199
1700.409469900441 0.9999998641548553
1700.4111703107612 0.9999998688755204
1700.4128707227815 0.9999998730824641
1700.4145711365024 0.9999998768209455
1700.4162715519237 0.9999998801158991
1700.4179719690453 0.9999998829712389
1700.4196723878674 0.9999998853647415
1700.4213728083898 0.9999998872338545
1700.423073230613 0.9999998884412
1700.4247736545362 0.9999998886992312
1700.42647408016 0.9999998874765942
1700.4281745074843 0.9999998840799943
1700.429874936509 0.9999998782708773
1700.431575367234 0.9999998713087672
1700.4332757996597 0.9999998661462911
1700.4349762337856 0.9999998655370935
1700.436676669612 0.9999998695041267
1700.4383771071389 0.9999998751710579
1700.4400775463664 0.9999998791389182
1700.4417779872938 0.9999998794341919
1700.4434784299222 0.9999998752585966
1700.4451788742506 0.9999998654810067
1700.4468793202798 0.9999998474126911
1700.448579768009 0.999999817256665
1700.450280217439 0.9999997741003261
1700.4519806685694 0.9999997264046551
1700.4536811214002 0.999999692890979
1700.4553815759316 0.9999996906024059
1700.4570820321633 0.9999997197105837
1700.4587824900957 0.9999997632895022
1700.4604829497282 0.9999998023869097
1700.4621834110615 0.9999998282855409
1700.4638838740948 0.9999998418836196
1700.4655843388289 0.9999998472183649
1700.4672848052635 0.9999998474373003
1700.4689852733984 0.9999998441935484
1700.4706857432336 0.9999998382093281
1700.4723862147698 0.9999998297289711
1700.4740866880059 0.9999998187181742
1700.475787162943 0.9999998049373865
1700.4774876395804 0.9999997879606136
1700.479188117918 0.9999997671588107
1700.4808885979564 0.999999741642421
1700.4825890796951 0.9999997101682956
1700.4842895631343 0.9999996709902721
1700.4859900482743 0.999999621606656
1700.4876905351143 0.9999995584392667
1700.489391023655 0.9999994761468061
1700.4910915138962 0.9999993666191348
1700.492792005838 0.9999992170872889
1700.4944924994802 0.9999990060697552
1700.4961929948229 0.9999986935303005
1700.4978934918663 0.9999982014732631
1700.4995939906096 0.9999974022187521
1700.5012944910538 0.9999961889477104
1700.5029949931984 0.9999946768412898
1700.5046954970437 0.9999933084689409
1700.5063960025893 0.9999926038534696
1700.5080965098355 0.9999928344464819
1700.5097970187821 0.9999939124750985
1700.5114975294293 0.9999954198618951
1700.5131980417773 0.9999968255067936
1700.5148985558253 0.9999978357715034
1700.516599071574 0.9999984702215391
1700.5182995890234 0.9999988637928395
1700.5200001081735 0.9999991215431435
1700.5217006290236 0.9999993003471872
1700.5234011515745 0.9999994295225919
1700.5251016758257 0.999999525620133
1700.5268022017776 0.9999995988596337
1700.52850272943 0.9999996558743431
1700.530203258783 0.9999997010495384
1700.5319037898366 0.9999997374346874
1700.5336043225902 0.999999767150106
1700.5353048570453 0.9999997917134905
1700.5370053932002 0.9999998122345714
1700.5387059310556 0.999999829537993
1700.540406470612 0.9999998442471036
1700.5421070118687 0.9999998568397336
1700.543807554826 0.999999867687299
1700.545508099484 0.9999998770817388
1700.547208645842 0.9999998852550155
1700.5489091939007 0.9999998923933162
1700.55060974366 0.9999998986475592
1700.55231029512 0.9999999041408746
1700.5540108482805 0.9999999089745643
1700.5557114031415 0.9999999132325538
1700.5574119597031 0.9999999169848898
1700.5591125179653 0.9999999202901916
1700.560813077928 0.999999923197932
1700.5625136395913 0.9999999257501914
1700.5642142029553 0.9999999279819156
1700.5659147680199 0.9999999299237968
1700.567615334785 0.9999999316016803
1700.5693159032505 0.9999999330376615
1700.5710164734166 0.9999999342507779
1700.5727170452838 0.9999999352590596
1700.5744176188507 0.9999999360724003
1700.5761181941186 0.9999999367046802
1700.5778187710873 0.9999999371656748
1700.579519349756 0.9999999374633978
1700.5812199301258 0.9999999376042819
1700.5829205121959 0.9999999375930616
1700.5846210959667 0.9999999374328882
1700.586321681438 0.9999999371247642
1700.5880222686098 0.9999999366675637
1700.5897228574827 0.9999999360572038
1700.5914234480554 0.9999999352854183
1700.593124040329 0.9999999343378442
1700.5948246343032 0.9999999331895688
1700.596525229978 0.9999999317938852
1700.5982258273534 0.9999999300551097
1700.5999264264299 0.9999999277879222
1700.6016270272064 0.9999999247318251
1700.6033276296837 0.9999999207682764
1700.6050282338615 0.9999999163520219
1700.60672883974 0.9999999126398994
1700.6084294473192 0.9999999107283825
1700.6101300565986 0.9999999105960568
1700.611830667579 0.999999911118478
1700.6135312802598 0.9999999111337
1700.615231894641 0.9999999101877141
1700.6169325107235 0.9999999083896516
1700.618633128506 0.9999999059826055
1700.6203337479897 0.9999999031294405
1700.6220343691734 0.999999899901404
1700.6237349920582 0.9999998963180475
1700.6254356166435 0.9999998923726412
1700.6271362429293 0.9999998880420538
1700.6288368709156 0.9999998832889987
1700.6305375006027 0.9999998780616693
1700.63223813199 0.9999998722911
1700.633938765079 0.9999998658871891
1700.6356393998678 0.9999998587317934
1700.6373400363575 0.9999998506689137
1700.6390406745477 0.9999998414894674
1700.6407413144386 0.9999998309090097
1700.6424419560303 0.9999998185325345
1700.6441425993223 0.9999998037987085
1700.6458432443155 0.9999997859016747
1700.6475438910088 0.9999997636407413
1700.6492445394028 0.999999735181163
1700.6509451894979 0.9999996975285677
1700.6526458412934 0.999999645240231
1700.6543464947895 0.9999995676782762
1700.656047149986 0.9999994459616396
1700.6577478068834 0.9999992573969418
1700.6594484654815 0.9999989992602115
1700.6611491257802 0.9999987228893464
1700.6628497877796 0.9999985319826609
1700.6645504514797 0.9999985170721426
1700.6662511168802 0.9999986816057205
1700.6679517839818 0.9999989389123566
1700.6696524527838 0.9999991834151515
1700.6713531232863 0.9999993592796407
1700.6730537954897 0.9999994664260431
1700.6747544693937 0.999999527160457
1700.6764551449987 0.9999995609326758
1700.678155822304 0.9999995788559376
1700.67985650131 0.9999995865543437
1700.6815571820168 0.9999995870111201
1700.6832578644241 0.999999582021641
1700.6849585485324 0.9999995726555824
1700.6866592343413 0.9999995595735024
1700.6883599218506 0.9999995431649517
1700.690060611061 0.9999995236252309
1700.6917613019718 0.9999995010088109
1700.693461994583 0.9999994752594722
1700.6951626888956 0.999999446228212
1700.6968633849087 0.9999994136774849
1700.6985640826222 0.9999993772782444
1700.7002647820368 0.9999993365938318
1700.7019654831518 0.9999992910728703
1700.7036661859677 0.9999992400692539
1700.7053668904841 0.9999991829249132
1700.7070675967013 0.9999991190182883
1700.7087683046193 0.9999990476091903
1700.710469014238 0.9999989675273527
1700.7121697255573 0.9999988770042252
1700.7138704385775 0.9999987738102557
1700.715571153298 0.9999986554057666
1700.7172718697195 0.9999985188709266
1700.7189725878418 0.9999983606229785
1700.7206733076644 0.9999981760815225
1700.7223740291881 0.9999979593670221
1700.7240747524124 0.9999977030218566
1700.7257754773375 0.9999973979392501
1700.7274762039633 0.9999970326980341
1700.72917693229 0.9999965901592792
1700.730877662317 0.999996038208557
1700.732578394045 0.9999953228214331
1700.7342791274737 0.9999943891744474
1700.735979862603 0.9999932442999179
1700.7376805994334 0.9999919820972069
1700.7393813379642 0.9999906798989708
1700.7410820781959 0.9999893229005694
1700.7427828201282 0.9999879688395392
1700.7444835637614 0.9999868495480614
1700.7461843090953 0.9999861694749378
1700.74788505613 0.9999860109772977
1700.749585804865 0.9999864104377517
1700.7512865553015 0.9999874053406544
1700.7529873074382 0.9999889806923158
1700.7546880612758 0.9999908772441191
1700.7563888168143 0.9999926137511903
1700.7580895740532 0.9999939225253321
1700.7597903329931 0.9999948687731096
1700.7614910936338 0.9999955924789787
1700.7631918559753 0.9999961762717182
1700.7648926200177 0.9999966566893512
1700.7665933857602 0.999997053801621
1700.7682941532041 0.9999973855005879
1700.7699949223486 0.9999976697157363
1700.7716956931938 0.9999979195483938
1700.7733964657398 0.999998140079232
1700.7750972399867 0.9999983315909494
1700.7767980159342 0.9999984953061517
1700.7784987935825 0.9999986349581249
1700.7801995729317 0.9999987550320553
1700.7819003539817 0.9999988592950724
1700.7836011367324 0.9999989505498875
1700.7853019211836 0.9999990308978483
1700.787002707336 0.9999991019848827
1700.7887034951889 0.9999991651440825
1700.790404284743 0.9999992214705994
1700.7921050759976 0.9999992718724622
1700.7938058689529 0.9999993171113657
1700.795506663609 0.99999935782497
1700.797207459966 0.9999993945536305
1700.798908258024 0.9999994277543868
1700.8006090577826 0.9999994578160156
1700.8023098592419 0.9999994850717322
1700.804010662402 0.9999995098095887
1700.805711467263 0.9999995322789206
1700.8074122738249 0.9999995526944275
1700.8091130820876 0.9999995712344061
1700.810813892051 0.9999995880443086
1700.8125147037154 0.99999960324163
1700.8142155170804 0.9999996169404635
1700.8159163321461 0.9999996291787088
1700.8176171489126 0.9999996400281936
1700.8193179673801 0.9999996495112232
1700.8210187875484 0.9999996576142791
1700.8227196094176 0.9999996642720776
1700.8244204329876 0.9999996693493046
1700.8261212582584 0.9999996725833902
1700.82782208523 0.9999996734451465
1700.8295229139026 0.9999996708230231
1700.831223744276 0.9999996626512423
1700.83292457635 0.9999996464289518
1700.8346254101252 0.999999622136733
1700.836326245601 0.999999596355732
1700.8380270827777 0.9999995810354785
1700.8397279216554 0.9999995836716106
1700.8414287622338 0.9999995993075053
1700.843129604513 0.9999996154045083
1700.844830448493 0.9999996226364324
1700.846531294174 0.9999996186453531
1700.8482321415559 0.9999996045039595
1700.8499329906383 0.9999995809657478
1700.8516338414217 0.9999995471858738
1700.8533346939062 0.9999995006805501
1700.8550355480913 0.9999994372121601
1700.8567364039773 0.9999993498533383
1700.8584372615642 0.999999226577114
1700.8601381208518 0.9999990441454646
1700.8618389818403 0.9999987577319348
1700.8635398445297 0.9999983003027688
1700.8652407089198 0.99999762980314
1700.8669415750107 0.9999968275890896
1700.8686424428026 0.9999961456319517
1700.8703433122955 0.9999958699368539
1700.872044183489 0.9999961270752642
1700.8737450563838 0.9999967996178876
1700.8754459309791 0.9999976046157404
1700.8771468072755 0.9999982865998243
1700.8788476852728 0.9999987555060978
1700.8805485649707 0.999999050613
1700.8822494463698 0.9999992393893217
1700.8839503294694 0.9999993677621404
1700.8856512142702 0.9999994596954029
1700.887352100772 0.9999995276231538
1700.8890529889745 0.9999995788308099
1700.8907538788778 0.9999996180910125
1700.8924547704821 0.9999996487007791
1700.8941556637872 0.9999996729745162
1700.8958565587932 0.9999996924597537
1700.8975574555002 0.9999997081533785
