Atmospheric Species: CH4_CO_CO2_H2O_NH3
Metallicity: 100
C/O_Ratio: 0.5
Wavelength[nm] Flux_variation
1999.999812280322 0.9998672257309835
2000.001812281134 0.999868747765758
2000.003812283946 0.9998755284552232
2000.0058122887588 0.9998878437645452
2000.0078122955706 0.9999057666079392
2000.0098123043829 0.9999261332272895
2000.0118123151951 0.9999409934950574
2000.0138123280071 0.9999499944405904
2000.0158123428193 0.9999584616407338
2000.017812359632 0.9999662344355702
2000.0198123784444 0.9999714408883984
2000.0218123992565 0.9999748857532439
2000.0238124220684 0.9999779819685061
2000.025812446881 0.9999812167573408
2000.0278124736938 0.9999843666560139
2000.0298125025063 0.9999865504363311
2000.0318125333185 0.9999865890865515
2000.033812566131 0.9999827883627841
2000.0358126009435 0.999970987758728
2000.037812637756 0.9999502645623004
2000.0398126765688 0.999926485235926
2000.0418127173812 0.9999056607748259
2000.0438127601935 0.9998906898336071
2000.0458128050066 0.9998817393049008
2000.0478128518196 0.9998783779784518
2000.0498129006319 0.999880415827425
2000.0518129514448 0.9998879711630643
2000.053813004258 0.9999014555638003
2000.055813059071 0.9999210348921994
2000.0578131158836 0.9999445633057866
2000.0598131746967 0.9999654418476382
2000.06181323551 0.9999752496966048
2000.0638132983227 0.9999761696534377
2000.0658133631362 0.999976119333794
2000.0678134299496 0.999977669691386
2000.0698134987629 0.9999807449511195
2000.0718135695763 0.9999843963562917
2000.0738136423897 0.9999867903185811
2000.0758137172033 0.9999857636891759
2000.0778137940172 0.9999805886265741
2000.079813872831 0.9999736783051033
2000.0818139536448 0.9999597797240001
2000.0838140364588 0.9999355008268154
2000.0858141212727 0.9999090541546203
2000.087814208087 0.9998874977329298
2000.089814296901 0.9998722213034478
2000.091814387715 0.9998625085621754
2000.0938144805295 0.9998579130468236
2000.095814575344 0.9998583177112945
2000.0978146721586 0.9998637294757333
2000.0998147709731 0.9998742999068895
2000.101814871788 0.9998905399787816
2000.1038149746025 0.9999129275241017
2000.1058150794172 0.9999372668278641
2000.1078151862328 0.9999459887689641
2000.1098152950476 0.9999385127109938
2000.1118154058631 0.9999321709803121
2000.1138155186784 0.9999311888448148
2000.115815633494 0.9999360001544608
2000.1178157503095 0.9999462568281499
2000.1198158691257 0.9999605594238204
2000.121815989941 0.99997555677829
2000.123816112757 0.9999864692670807
2000.1258162375732 0.9999920768118978
2000.1278163643894 0.9999950369970144
2000.1298164932057 0.9999966669778669
2000.1318166240221 0.9999968370146315
2000.1338167568388 0.9999953880785768
2000.1358168916554 0.9999926308688603
2000.1378170284725 0.9999896014444732
2000.1398171672895 0.9999876455599948
2000.1418173081065 0.9999871895980448
2000.1438174509237 0.999986602883007
2000.145817595741 0.9999830247367371
2000.1478177425586 0.9999769207729824
2000.1498178913766 0.999972587017845
2000.1518180421942 0.9999729887211598
2000.1538181950127 0.9999781297997472
2000.1558183498312 0.9999849366539689
2000.1578185066492 0.9999887479643571
2000.1598186654676 0.9999881230907532
2000.1618188262864 0.99997779902134
2000.1638189891055 0.9999405750508976
2000.165819153924 0.9999057757419452
2000.1678193207435 0.9999178319464331
2000.1698194895628 0.9999646989724664
2000.1718196603822 0.999990918646779
2000.1738198332023 0.9999930203478293
2000.1758200080221 0.9999886106333693
2000.177820184842 0.9999815182967204
2000.1798203636622 0.9999736144371236
2000.1818205444827 0.9999663533187417
2000.183820727303 0.999951962679167
2000.1858209121242 0.9999078212650485
2000.1878210989448 0.9998681989651325
2000.1898212877659 0.9998733084722324
2000.1918214785871 0.9999254317726725
2000.1938216714088 0.9999729532557424
2000.19582186623 0.9999829483231898
2000.1978220630526 0.9999812111643767
2000.1998222618745 0.9999779360635385
2000.2018224626968 0.9999759816473918
2000.2038226655195 0.9999758166469829
2000.205822870342 0.9999753038738963
2000.2078230771644 0.9999721568258163
2000.2098232859878 0.999967821462082
2000.2118234968113 0.9999641750877466
2000.213823709635 0.9999601420944729
2000.2158239244584 0.9999522679399049
2000.2178241412826 0.9999380806554865
2000.2198243601067 0.9999087243823067
2000.2218245809313 0.9998330057874759
2000.2238248037554 0.999788353399242
2000.2258250285802 0.9997652064436331
2000.2278252554056 0.9997629483622711
2000.2298254842308 0.9997819207646882
2000.2318257150564 0.9998210591169102
2000.2338259478825 0.9999044148626235
2000.2358261827083 0.999950720905305
2000.2378264195343 0.9999656274374061
2000.2398266583607 0.9999688997896053
2000.2418268991873 0.9999708546506669
2000.2438271420144 0.9999757542696137
2000.2458273868415 0.9999832297740227
2000.247827633669 0.9999902571288443
2000.2498278824967 0.9999924151656537
2000.2518281333246 0.9999890098233218
2000.2538283861531 0.9999843817416854
2000.255828640981 0.9999820577521447
2000.2578288978098 0.9999826644344711
2000.2598291566387 0.9999850381986273
2000.2618294174679 0.9999878530863581
2000.2638296802972 0.9999907611234956
2000.2658299451268 0.9999939676135244
2000.267830211957 0.99999715494635
2000.2698304807873 0.9999993801155141
2000.271830751618 0.9999999459935763
2000.2738310244486 0.9999989045120641
2000.2758312992798 0.9999968931145575
2000.277831576111 0.9999947173711807
2000.2798318549428 0.9999929911496406
2000.2818321357747 0.9999916779921033
2000.283832418607 0.9999898226070023
2000.2858327034396 0.9999858471042221
2000.2878329902726 0.999979124402521
2000.2898332791053 0.9999716820675262
2000.2918335699385 0.9999663708651595
2000.2938338627723 0.9999646909428554
2000.2958341576061 0.9999668481636044
2000.2978344544404 0.999971868536106
2000.299834753275 0.9999770658522666
2000.30183505411 0.9999793003135258
2000.3038353569448 0.9999793116278262
2000.3058356617803 0.9999802926545354
2000.3078359686162 0.9999831870668022
2000.3098362774524 0.9999855413574888
2000.3118365882883 0.9999828910978426
2000.313836901125 0.9999739880368674
2000.3158372159623 0.9999612383221615
2000.3178375327993 0.9999477736104581
2000.319837851637 0.9999370925375506
2000.321838172475 0.9999312722158988
2000.3238384953136 0.9999297356323742
2000.3258388201518 0.9999284263280388
2000.3278391469905 0.9999234361924317
2000.3298394758299 0.9999181534098401
2000.331839806669 0.9999170580192754
2000.3338401395092 0.999921699761211
2000.3358404743494 0.9999320757598686
2000.33784081119 0.9999464988606591
2000.3398411500311 0.9999612644478375
2000.3418414908724 0.9999730343052807
2000.3438418337141 0.9999798378007964
2000.3458421785558 0.999980556976467
2000.3478425253984 0.9999751674097918
2000.3498428742414 0.9999669880727237
2000.351843225084 0.9999614136499059
2000.353843577928 0.9999611753019649
2000.3558439327714 0.9999661928820403
2000.3578442896157 0.9999736943794314
2000.3598446484605 0.9999791144241778
2000.361845009305 0.9999794855400533
2000.3638453721503 0.9999743338195948
2000.3658457369957 0.9999651520057293
2000.3678461038414 0.9999547220653753
2000.3698464726879 0.9999458915360939
2000.3718468435345 0.9999409079393313
2000.3738472163816 0.9999406747503768
2000.3758475912289 0.999944325953606
2000.3778479680766 0.999949366171583
2000.3798483469245 0.9999540124952975
2000.3818487277726 0.9999591665653089
2000.3838491106217 0.9999661339061764
2000.3858494954707 0.9999747572232899
2000.3878498823208 0.9999834411143643
2000.389850271171 0.9999899994113922
2000.391850662021 0.9999938132777542
2000.3938510548717 0.9999957281924944
2000.3958514497233 0.999995028678408
2000.3978518465744 0.9999909107134834
2000.3998522454267 0.9999863287059331
2000.4018526462794 0.9999840218451801
2000.4038530491318 0.9999845363875095
2000.405853453985 0.9999879881565535
2000.407853860839 0.9999930129377105
2000.4098542696927 0.9999962430911415
2000.4118546805466 0.9999950675751376
2000.4138550934015 0.999991061129371
2000.4158555082572 0.9999869536912047
2000.4178559251125 0.9999835324032023
2000.4198563439686 0.9999819957761761
2000.421856764825 0.9999851821101996
2000.423857187682 0.999990517351498
2000.425857612539 0.999992201650109
2000.427858039397 0.9999756808408735
2000.4298584682556 0.9999242396038034
2000.4318588991136 0.9998906341264953
2000.4338593319726 0.9999098944901983
2000.4358597668324 0.99995797122
2000.4378602036923 0.9999751081749833
2000.4398606425525 0.9999708455675362
2000.4418610834134 0.9999663033735469
2000.4438615262745 0.9999657846590394
2000.4458619711359 0.999969494889401
2000.4478624179985 0.9999757976804066
2000.449862866861 0.9999813574726425
2000.4518633177238 0.9999841047451454
2000.453863770587 0.9999857012725343
2000.4558642254513 0.9999875498385904
2000.4578646823156 0.9999881738659815
2000.4598651411802 0.9999855870799884
2000.4618656020457 0.9999809454688618
2000.4638660649114 0.9999770789784242
2000.4658665297777 0.9999755584924872
2000.4678669966447 0.9999760572111233
2000.4698674655117 0.9999771570472499
2000.4718679363796 0.999978420342084
2000.4738684092474 0.999980909786392
2000.475868884116 0.9999853701866429
2000.477869360985 0.9999908638167897
2000.4798698398545 0.9999945929115766
2000.4818703207245 0.9999945177053653
2000.483870803595 0.9999923870349023
2000.485871288466 0.9999906690021747
2000.4878717753377 0.9999897087941321
2000.4898722642095 0.9999889993729891
2000.491872755082 0.9999887896800347
2000.4938732479552 0.9999894322097372
2000.4958737428285 0.9999902908876103
2000.4978742397027 0.999990357477371
2000.4998747385769 0.9999900562090479
2000.5018752394521 0.9999905950510283
2000.5038757423272 0.9999918872968828
2000.5058762472029 0.9999925786298806
2000.5078767540795 0.9999917094845802
2000.509877262956 0.9999897223661206
2000.5118777738342 0.999987819224543
2000.5138782867118 0.9999869479802729
2000.5158788015904 0.999987039014297
2000.5178793184689 0.9999860268863231
2000.519879837349 0.9999780391727542
2000.5218803582286 0.9999556542279997
2000.5238808811096 0.9999092473789924
2000.5258814059907 0.999859206426336
2000.5278819328719 0.9998443022528711
2000.5298824617544 0.9998551528094761
2000.5318829926364 0.9998738621035966
2000.5338835255197 0.9998822619410521
2000.5358840604035 0.9998891684581175
2000.537884597288 0.9999011627072893
2000.5398851361724 0.9999192702643172
2000.5418856770577 0.9999418516249287
2000.5438862199437 0.9999635078665011
2000.54588676483 0.9999775558981164
2000.5478873117172 0.9999829740684719
2000.5498878606047 0.9999841321670191
2000.5518884114929 0.9999837393760553
2000.5538889643813 0.9999833206006465
2000.5558895192703 0.9999836857359927
2000.5578900761602 0.9999841352304563
2000.5598906350506 0.9999829393516553
2000.5618911959411 0.9999799883231242
2000.5638917588328 0.9999773975246746
2000.5658923237245 0.9999768648844689
2000.567892890617 0.9999779349084734
2000.5698934595102 0.9999770700978404
2000.5718940304037 0.9999707678763465
2000.573894603298 0.9999617691990159
2000.575895178193 0.9999548181657472
2000.5778957550883 0.9999523606068919
2000.5798963339842 0.9999551101952507
2000.5818969148809 0.9999626800204849
2000.5838974977776 0.9999732932852092
2000.5858980826756 0.9999823800777519
2000.5878986695739 0.99998426826143
2000.589899258473 0.9999809066040565
2000.591899849372 0.9999776699649588
2000.5939004422726 0.9999767714811983
2000.5959010371732 0.9999781484185865
2000.5979016340743 0.9999795739996986
2000.599902232976 0.9999787744657195
2000.6019028338785 0.9999773054783756
2000.6039034367816 0.9999754809024023
2000.605904041685 0.9999624295767957
2000.6079046485897 0.9999342062066989
2000.6099052574943 0.9999037674006601
2000.6119058683998 0.999879877139399
2000.613906481306 0.9998629887740816
2000.6159070962128 0.9998518368704679
2000.61790771312 0.9998459331470477
2000.6199083320282 0.9998452051964556
2000.621908952937 0.9998496526340329
2000.623909575846 0.9998592948418642
2000.625910200756 0.9998743850007131
2000.627910827666 0.9998958699487339
2000.6299114565775 0.9999245021984847
2000.6319120874891 0.9999540471263487
2000.633912720402 0.9999680880135224
2000.6359133553146 0.9999567513050405
2000.6379139922285 0.9999316598679588
2000.6399146311426 0.9999063242704763
2000.6419152720573 0.9998868637458607
2000.643915914973 0.9998738845619844
2000.645916559889 0.9998666345543165
2000.6479172068057 0.9998647005210135
2000.649917855723 0.9998676205579102
2000.6519185066409 0.9998627001255905
2000.6539191595598 0.9998123621230683
2000.6559198144796 0.9997762336432995
2000.6579204713996 0.999759873913574
2000.65992113032 0.9997650043570299
2000.6619217912419 0.999790851800801
2000.6639224541639 0.9998442627254848
2000.6659231190863 0.9999385725696485
2000.6679237860099 0.9999486989606649
2000.6699244549338 0.9999494247576644
2000.6719251258585 0.9999498841046619
2000.6739257987842 0.9999510231956145
2000.67592647371 0.9999541695970011
2000.6779271506366 0.9999601993944445
2000.6799278295641 0.999969210270145
2000.6819285104925 0.9999793199557091
2000.6839291934211 0.9999864339827474
2000.6859298783502 0.9999888302754887
2000.6879305652806 0.9999876826405192
2000.6899312542112 0.9999838301932018
2000.691931945143 0.9999778578270767
2000.6939326380752 0.9999725792588121
2000.6959333330078 0.9999701840728784
2000.6979340299417 0.9999677658184725
2000.6999347288759 0.9999669506071042
2000.7019354298113 0.999972544316058
2000.7039361327465 0.9999763223075548
2000.705936837683 0.9999491236568028
2000.7079375446203 0.9998913004753995
2000.7099382535578 0.9998715541479083
2000.7119389644963 0.9999028871197271
2000.7139396774357 0.9999526307357629
2000.7159403923756 0.9999684355300367
2000.7179411093164 0.9999677977265639
2000.7199418282578 0.9999656173122271
2000.7219425491999 0.9999656915797515
2000.7239432721424 0.9999697053601468
2000.7259439970862 0.9999770102907005
2000.7279447240305 0.9999840215371827
2000.7299454529755 0.9999871212341624
2000.7319461839213 0.999987315593633
2000.7339469168678 0.999987385370092
2000.735947651815 0.9999879956659297
2000.7379483887632 0.9999883784698714
2000.7399491277117 0.9999885266157239
2000.741949868661 0.9999895772385051
2000.7439506116116 0.9999921935673197
2000.745951356562 0.9999953751231044
2000.7479521035139 0.9999968261012634
2000.7499528524665 0.999995183471043
2000.7519536034195 0.9999914125164996
2000.7539543563735 0.9999875869532848
2000.7559551113281 0.9999849154213539
2000.7579558682833 0.9999833268456867
2000.75995662724 0.9999824522020426
2000.7619573881968 0.9999819615582913
2000.7639581511546 0.999981095325808
2000.7659589161133 0.9999795051638998
2000.7679596830724 0.9999786605304505
2000.7699604520324 0.9999804272729952
2000.7719612229935 0.9999850004717904
2000.7739619959548 0.9999905403049543
2000.775962770917 0.9999943935194708
2000.7779635478798 0.9999954620472679
2000.7799643268443 0.9999945170028068
2000.7819651078087 0.9999922211621811
2000.783965890774 0.9999881472740907
2000.7859666757402 0.999982022055705
2000.7879674627075 0.9999753634823474
2000.789968251675 0.9999703441956694
2000.7919690426434 0.9999682896975286
2000.7939698356126 0.9999697309651396
2000.795970630583 0.9999744199709658
2000.7979714275539 0.9999807471025247
2000.7999722265256 0.9999859995514008
2000.8019730274982 0.9999884880842055
2000.8039738304715 0.9999874183836256
2000.8059746354456 0.9999817665264055
2000.8079754424211 0.9999736651314878
2000.8099762513964 0.9999668550850416
2000.8119770623734 0.9999632516916053
2000.8139778753505 0.9999629816533856
2000.8159786903286 0.9999650238093382
2000.8179795073077 0.999968077609983
2000.8199803262876 0.9999718979228024
2000.8219811472686 0.9999770682225948
2000.8239819702499 0.9999833145035205
2000.8259827952318 0.9999884193703773
2000.8279836222155 0.9999887623967844
2000.8299844511994 0.9999830325684157
2000.831985282184 0.9999738938783593
2000.8339861151694 0.9999644357100267
2000.835986950156 0.9999568778444529
2000.8379877871434 0.9999529918220113
2000.8399886261318 0.9999537746171792
2000.8419894671204 0.9999589637934894
2000.84399031011 0.9999663167500591
2000.8459911551006 0.9999715883245127
2000.8479920020925 0.9999725077996414
2000.8499928510848 0.9999714302218308
2000.8519937020778 0.9999713618694757
2000.853994555072 0.999973857808578
2000.855995410067 0.9999790905174637
2000.8579962670626 0.9999858944325363
2000.8599971260594 0.9999916012076188
2000.861997987057 0.9999938170971843
2000.8639988500552 0.9999933496858245
2000.8659997150544 0.9999925916963524
2000.8680005820545 0.9999925013064437
2000.8700014510555 0.9999909617033622
2000.872002322057 0.9999739655078386
2000.8740031950601 0.9999096709855141
2000.8760040700631 0.9998525034862091
2000.8780049470681 0.9998478081160964
2000.8800058260733 0.9998941465038992
2000.8820067070794 0.9999648220535357
2000.8840075900869 0.999984369683163
2000.886008475095 0.9999776696984719
2000.8880093621042 0.9999657493385
2000.8900102511134 0.9999546978729185
2000.892011142124 0.999946877506357
2000.8940120351353 0.9999435227044654
2000.8960129301477 0.9999451288239002
2000.8980138271609 0.9999514912181897
2000.900014726175 0.9999615638547196
2000.90201562719 0.9999724173937663
2000.904016530206 0.9999753749112523
2000.906017435223 0.9999651705314255
2000.908018342241 0.9999513114761487
2000.9100192512599 0.9999398470182692
2000.9120201622795 0.9999330507115313
2000.9140210752998 0.999931802498383
2000.916021990322 0.9999362039671087
2000.918022907344 0.9999456404631563
2000.9200238263672 0.9999583378647596
2000.9220247473918 0.9999710621675164
2000.9240256704163 0.9999803210211831
2000.9260265954426 0.9999858567222225
2000.9280275224694 0.9999900256546369
2000.9300284514975 0.9999933312816481
2000.9320293825265 0.9999949244421668
2000.9340303155564 0.9999950238630348
2000.9360312505873 0.9999949003823823
2000.9380321876183 0.999995236313795
2000.9400331266515 0.9999950885256148
2000.9420340676843 0.9999923970124439
2000.9440350107188 0.9999866630580965
2000.9460359557547 0.9999801327258794
2000.9480369027913 0.9999750227152611
2000.9500378518283 0.9999717555884564
2000.9520388028668 0.999969390196311
2000.9540397559056 0.9999674595355669
2000.9560407109461 0.999966910847653
2000.9580416679873 0.9999682556859663
2000.9600426270292 0.999969912807886
2000.962043588072 0.9999703170294206
2000.9640445511163 0.999970814415824
2000.966045516161 0.9999735266198763
2000.9680464832072 0.9999784896287844
2000.9700474522538 0.999983399042173
2000.9720484233017 0.9999854395452311
2000.9740493963504 0.999984382434596
2000.9760503713999 0.999982472949074
2000.9780513484511 0.9999814612210477
2000.9800523275028 0.9999814177999397
2000.9820533085556 0.999981186256948
2000.9840542916097 0.9999797478643054
2000.9860552766643 0.9999771558360522
2000.9880562637197 0.9999735054371603
2000.9900572527768 0.9999685895947279
2000.992058243834 0.9999622271638018
2000.9940592368928 0.9999460486796965
2000.996060231953 0.9998982114179015
2000.9980612290135 0.9998573454381693
2001.0000622280747 0.9998588100462149
2001.0020632291375 0.9999004050246763
2001.004064232201 0.9999386028757156
2001.0060652372658 0.9999411268489979
2001.0080662443318 0.9999342774539349
2001.0100672533981 0.9999293067538236
2001.0120682644658 0.9999281028246028
2001.0140692775344 0.9999305171864211
2001.0160702926044 0.999935989593679
2001.018071309675 0.9999442144877602
2001.0200723287464 0.999954735287785
2001.0220733498195 0.9999655433567868
2001.0240743728934 0.999973227072763
2001.0260753979683 0.9999765398594607
2001.0280764250442 0.9999768075102332
2001.0300774541208 0.9999747462211657
2001.0320784851986 0.9999685105246578
2001.0340795182774 0.9999551194859286
2001.0360805533578 0.9999376023742224
2001.0380815904384 0.9999202481793568
2001.0400826295206 0.9999044072520509
2001.0420836706037 0.9998896225822418
2001.0440847136879 0.999875740974007
2001.046085758773 0.9998644191365368
2001.0480868058594 0.9998571699889798
2001.0500878549465 0.999854582479121
2001.052088906035 0.9998567843380352
2001.054089959124 0.9998641694251799
