Atmospheric Species: CO
Metallicity: 1000
C/O_Ratio: 0.5
Wavelength[nm] Flux_variation
1699.999720594985 0.9999999999041922
1700.0014205955558 0.9999999999907617
1700.003120597826 1.0
1700.0048206017968 0.9999999999210345
1700.0065206074676 0.9999999997381981
1700.0082206148381 0.9999999994288736
1700.0099206239088 0.9999999989596567
1700.0116206346793 0.9999999982816873
1700.0133206471498 0.9999999973195555
1700.0150206613202 0.9999999959543471
1700.016720677191 0.9999999939898113
1700.0184206947615 0.9999999910774492
1700.020120714032 0.9999999865361565
1700.0218207350024 0.9999999789672387
1700.0235207576732 0.9999999657794623
1700.025220782044 0.9999999436174303
1700.0269208081147 0.999999911550705
1700.0286208358855 0.9999998764321736
1700.0303208653559 0.999999853464698
1700.032020896527 0.999999855736746
1700.0337209293978 0.9999998817683861
1700.0354209639686 0.9999999170216007
1700.0371210002395 0.9999999472985913
1700.0388210382105 0.9999999674176018
1700.0405210778813 0.9999999791097192
1700.0422211192524 0.9999999857284545
1700.0439211623234 0.999999989639176
1700.0456212070944 0.9999999920775788
1700.0473212535655 0.9999999936456038
1700.0490213017365 0.999999994656256
1700.050721351608 0.9999999952886848
1700.0524214031793 0.9999999956526973
1700.0541214564507 0.9999999958176686
1700.0558215114222 0.9999999958301381
1700.0575215680938 0.9999999957214672
1700.0592216264656 0.9999999955133776
1700.0609216865369 0.999999995221262
1700.0626217483084 0.9999999948562508
1700.0643218117798 0.9999999944263339
1700.0660218769517 0.9999999939373916
1700.0677219438237 0.9999999933937522
1700.0694220123955 0.9999999927984722
1700.0711220826677 0.9999999921537458
1700.0728221546399 0.9999999914610845
1700.0745222283117 0.9999999907213981
1700.0762223036838 0.9999999899351519
1700.0779223807563 0.9999999891024404
1700.0796224595285 0.999999988223009
1700.081322540001 0.9999999872962817
1700.0830226221735 0.9999999863214707
1700.084722706046 0.9999999852974973
1700.0864227916188 0.9999999842230757
1700.0881228788917 0.9999999830967736
1700.0898229678646 0.9999999819170383
1700.0915230585374 0.9999999806820035
1700.0932231509105 0.9999999793894965
1700.0949232449836 0.9999999780368544
1700.0966233407569 0.9999999766211913
1700.0983234382302 0.9999999751394202
1700.1000235374036 0.999999973587667
1700.101723638277 0.9999999719628893
1700.1034237408508 0.9999999702605151
1700.1051238451244 0.9999999684758794
1700.106823951098 0.9999999666036945
1700.108524058772 0.9999999646379794
1700.1102241681463 0.999999962572072
1700.1119242792201 0.9999999603983375
1700.1136243919946 0.9999999581081889
1700.1153245064686 0.9999999556917566
1700.1170246226434 0.9999999531377021
1700.118724740518 0.9999999504328434
1700.1204248600927 0.999999947561906
1700.1221249813675 0.9999999445068543
1700.1238251043426 0.9999999412464673
1700.1255252290177 0.9999999377552503
1700.1272253553927 0.9999999340026713
1700.1289254834683 0.9999999299514439
1700.1306256132436 0.9999999255556645
1700.1323257447189 0.9999999207581832
1700.134025877895 0.9999999154868902
1700.1357260127709 0.9999999096489827
1700.137426149347 0.9999999031256256
1700.1391262876232 0.9999998957579572
1700.1408264275992 0.9999998873328514
1700.1425265692758 0.9999998775582677
1700.1442267126522 0.9999998660247086
1700.1459268577291 0.9999998521449386
1700.147627004506 0.9999998350642435
1700.149327152983 0.9999998134894315
1700.1510273031602 0.9999997853759515
1700.1527274550374 0.9999997471594051
1700.154427608615 0.9999996918917536
1700.1561277638923 0.9999996060340699
1700.1578279208704 0.9999994685615483
1700.1595280795482 0.9999992631909944
1700.1612282399262 0.9999990086829311
1700.1629284020044 0.9999987801199367
1700.1646285657832 0.9999986760685365
1700.1663287312617 0.9999987452619101
1700.1680288984403 0.9999989462015865
1700.169729067319 0.9999991829419304
1700.171429237898 0.9999993770129797
1700.1731294101774 0.9999995036460313
1700.174829584157 0.9999995748507955
1700.1765297598363 0.9999996102219666
1700.1782299372162 0.9999996229501527
1700.1799301162962 0.9999996185254557
1700.1816302970763 0.9999995968807097
1700.1833304795568 0.9999995557418417
1700.1850306637373 0.9999994962041491
1700.186730849618 0.9999994273327756
1700.1884310371988 0.9999993610029312
1700.1901312264797 0.999999295855669
1700.1918314174611 0.9999992081154132
1700.1935316101426 0.9999990700598106
1700.1952318045244 0.9999988888706877
1700.196932000606 0.9999987256319028
1700.1986321983882 0.9999986607101183
1700.2003323978704 0.9999987310519909
1700.202032599053 0.9999989006047764
1700.2037328019355 0.9999990921042137
1700.2054330065184 0.9999992447011593
1700.2071332128014 0.999999341348595
1700.208833420785 0.9999993939806516
1700.210533630468 0.9999994194868974
1700.2122338418515 0.9999994288573018
1700.2139340549356 0.9999994274460744
1700.2156342697199 0.999999417331505
1700.2173344862042 0.9999993986811379
1700.2190347043886 0.9999993701290301
1700.2207349242735 0.9999993300408871
1700.2224351458585 0.9999992801837071
1700.2241353691436 0.9999992290599845
1700.2258355941292 0.9999991879684074
1700.2275358208146 0.9999991603603622
1700.2292360492004 0.9999991374759889
1700.2309362792867 0.999999106557191
1700.232636511073 0.9999990606856938
1700.2343367445594 0.9999990007305282
1700.236036979746 0.9999989320157004
1700.2377372166331 0.9999988599396306
1700.2394374552205 0.9999987860825568
1700.241137695508 0.9999987070990608
1700.2428379374958 0.9999986174622882
1700.2445381811838 0.9999985129067785
1700.246238426572 0.9999983913285697
1700.2479386736607 0.9999982515074849
1700.2496389224493 0.999998091828666
1700.2513391729383 0.999997909822238
1700.2530394251273 0.9999977021566874
1700.2547396790171 0.9999974646629826
1700.2564399346068 0.9999971922859457
1700.2581401918967 0.9999968787983495
1700.2598404508867 0.9999965170273684
1700.2615407115777 0.9999960978674103
1700.263240973968 0.9999956095379974
1700.2649412380592 0.999995034078468
1700.2666415038505 0.9999943360177844
1700.2683417713422 0.9999934373557623
1700.2700420405338 0.9999922087630437
1700.2717423114264 0.9999905922665826
1700.2734425840185 0.9999888106226581
1700.275142858311 0.9999872159746922
1700.276843134304 0.9999860171532473
1700.2785434119971 0.9999853541480238
1700.2802436913905 0.9999853295981825
1700.2819439724844 0.9999859494802212
1700.2836442552784 0.9999871196328616
1700.2853445397727 0.999988703142132
1700.2870448259675 0.9999904968286983
1700.2887451138624 0.9999921423072312
1700.2904454034576 0.9999933931550367
1700.2921456947531 0.9999943017766024
1700.2938459877491 0.9999950048420249
1700.2955462824452 0.9999955844758806
1700.2972465788416 0.9999960767546312
1700.2989468769385 0.9999964995277267
1700.3006471767358 0.9999968645648677
1700.3023474782328 0.9999971810531059
1700.3040477814307 0.9999974562436685
1700.3057480863285 0.9999976964790419
1700.3074483929267 0.9999979069370317
1700.3091487012252 0.9999980919722071
1700.3108490112243 0.9999982552379252
1700.3125493229234 0.9999983998072874
1700.3142496363225 0.9999985282674558
1700.3159499514227 0.9999986428040377
1700.3176502682227 0.9999987452642578
1700.3193505867227 0.9999988372141453
1700.3210509069238 0.9999989199853337
1700.3227512288247 0.9999989947117235
1700.324451552426 0.9999990623645691
1700.3261518777274 0.9999991237736421
1700.3278522047294 0.9999991796570404
1700.3295525334318 0.9999992306289542
1700.3312528638346 0.9999992772241896
1700.3329531959375 0.9999993199046427
1700.334653529741 0.9999993590720521
1700.3363538652445 0.9999993950763315
1700.3380542024483 0.9999994282203676
1700.3397545413527 0.9999994587698698
1700.3414548819576 0.9999994869559711
1700.3431552242623 0.9999995129784135
1700.3448555682678 0.9999995370082874
1700.3465559139734 0.9999995591933856
1700.3482562613794 0.99999957967583
1700.3499566104858 0.9999995985068083
1700.3516569612923 0.999999615783342
1700.3533573137995 0.9999996315446582
1700.355057668007 0.9999996457984632
1700.3567580239148 0.9999996585049676
1700.358458381523 0.9999996695633787
1700.360158740831 0.9999996787783009
1700.3618591018403 0.9999996858101374
1700.3635594645496 0.999999690077559
1700.365259828959 0.999999690551024
1700.366960195069 0.9999996852699338
1700.3686605628795 0.9999996703290179
1700.37036093239 0.999999638621192
1700.372061303601 0.999999580695055
1700.3737616765122 0.9999994916976249
1700.3754620511243 0.9999993821976103
1700.3771624274364 0.9999992784931127
1700.378862805449 0.9999992055614465
1700.380563185162 0.9999991763731291
1700.3822635665754 0.9999992023550908
1700.383963949689 0.999999292059111
1700.385664334503 0.9999994271500297
1700.3873647210175 0.9999995635453802
1700.3890651092324 0.999999667116771
1700.3907654991474 0.9999997331335496
1700.392465890763 0.999999773344393
1700.3941662840791 0.9999997994186058
1700.3958666790954 0.9999998179863456
1700.3975670758123 0.9999998321657154
1700.3992674742296 0.9999998434788148
1700.400967874347 0.9999998527783384
1700.402668276165 0.9999998606022082
1700.4043686796833 0.999999867306079
1700.4060690849024 0.999999873133191
1700.4077694918215 0.9999998782531606
1700.409469900441 0.9999998827856195
1700.4111703107612 0.9999998868156811
1700.4128707227815 0.9999998904028355
1700.4145711365024 0.9999998935865733
1700.4162715519237 0.9999998963887634
1700.4179719690453 0.9999998988130759
1700.4196723878674 0.9999999008405066
1700.4213728083898 0.9999999024166756
1700.423073230613 0.9999999034201065
1700.4247736545362 0.9999999035915169
1700.42647408016 0.9999999024431446
1700.4281745074843 0.9999998993273873
1700.429874936509 0.9999998940031332
1700.431575367234 0.9999998876085406
1700.4332757996597 0.9999998828573653
1700.4349762337856 0.9999998822948784
1700.436676669612 0.9999998859500788
1700.4383771071389 0.9999998911807555
1700.4400775463664 0.9999998948808261
1700.4417779872938 0.9999998952803394
1700.4434784299222 0.9999998916972164
1700.4451788742506 0.9999998831238955
1700.4468793202798 0.9999998670676429
1700.448579768009 0.9999998399319193
1700.450280217439 0.9999998007130219
1700.4519806685694 0.9999997570949447
1700.4536811214002 0.9999997263715655
1700.4553815759316 0.9999997243606362
1700.4570820321633 0.999999751223587
1700.4587824900957 0.9999997912538093
1700.4604829497282 0.9999998269432605
1700.4621834110615 0.9999998503705901
1700.4638838740948 0.9999998625276836
1700.4655843388289 0.9999998672357233
1700.4672848052635 0.9999998674185511
1700.4689852733984 0.9999998645857363
1700.4706857432336 0.9999998593848154
1700.4723862147698 0.9999998520318235
1700.4740866880059 0.999999842497345
1700.475787162943 0.9999998305739385
1700.4774876395804 0.9999998158937685
1700.479188117918 0.9999997979147585
1700.4808885979564 0.999999775871285
1700.4825890796951 0.9999997486943454
1700.4842895631343 0.9999997148840069
1700.4859900482743 0.9999996722939714
1700.4876905351143 0.9999996178581383
1700.489391023655 0.9999995470058479
1700.4910915138962 0.9999994528013118
1700.492792005838 0.9999993242970419
1700.4944924994802 0.9999991428665599
1700.4961929948229 0.9999988729279031
1700.4978934918663 0.9999984429429846
1700.4995939906096 0.9999977323753533
1700.5012944910538 0.9999966368583341
1700.5029949931984 0.9999952600604254
1700.5046954970437 0.9999940118190509
1700.5063960025893 0.9999933694682904
1700.5080965098355 0.999993579601765
1700.5097970187821 0.9999945626820196
1700.5114975294293 0.9999959372425508
1700.5131980417773 0.9999972131843667
1700.5148985558253 0.9999981192007107
1700.516599071574 0.9999986784014353
1700.5182995890234 0.9999990200434031
1700.5200001081735 0.9999992419942417
1700.5217006290236 0.9999993956311249
1700.5234011515745 0.9999995066625621
1700.5251016758257 0.9999995893397187
1700.5268022017776 0.9999996524079601
1700.52850272943 0.9999997015406533
1700.530203258783 0.9999997404929177
1700.5319037898366 0.9999997718792227
1700.5336043225902 0.9999997975199026
1700.5353048570453 0.9999998187193794
1700.5370053932002 0.9999998364323898
1700.5387059310556 0.9999998513689858
1700.540406470612 0.9999998640662845
1700.5421070118687 0.9999998749362736
1700.543807554826 0.9999998842993606
1700.545508099484 0.9999998924075114
1700.547208645842 0.999999899461009
1700.5489091939007 0.9999999056206706
1700.55060974366 0.9999999110168851
1700.55231029512 0.9999999157560655
1700.5540108482805 0.9999999199257783
1700.5557114031415 0.9999999235985808
1700.5574119597031 0.9999999268350461
1700.5591125179653 0.9999999296858668
1700.560813077928 0.9999999321938341
1700.5625136395913 0.9999999343953623
1700.5642142029553 0.999999936320651
1700.5659147680199 0.9999999379962702
1700.567615334785 0.999999939444591
1700.5693159032505 0.9999999406847143
1700.5710164734166 0.9999999417331238
1700.5727170452838 0.9999999426054004
1700.5744176188507 0.9999999433101607
1700.5761181941186 0.9999999438593932
1700.5778187710873 0.9999999442615692
1700.579519349756 0.9999999445236204
1700.5812199301258 0.9999999446511287
1700.5829205121959 0.9999999446482015
1700.5846210959667 0.9999999445175748
1700.586321681438 0.9999999442601271
1700.5880222686098 0.9999999438748884
1700.5897228574827 0.9999999433583165
1700.5914234480554 0.9999999427032135
1700.593124040329 0.9999999418969897
1700.5948246343032 0.9999999409175172
1700.596525229978 0.999999939722334
1700.5982258273534 0.999999938221938
1700.5999264264299 0.9999999362381944
1700.6016270272064 0.9999999335128246
1700.6033276296837 0.9999999299145312
1700.6050282338615 0.9999999258671184
1700.60672883974 0.9999999224932137
1700.6084294473192 0.9999999208699805
1700.6101300565986 0.9999999209772374
1700.611830667579 0.9999999217123104
1700.6135312802598 0.9999999219498291
1700.615231894641 0.999999921268683
1700.6169325107235 0.9999999197928301
1700.618633128506 0.9999999177654758
1700.6203337479897 0.9999999153452664
1700.6220343691734 0.9999999126006708
1700.6237349920582 0.9999999095508948
1700.6254356166435 0.999999906191011
1700.6271362429293 0.999999902501557
1700.6288368709156 0.9999998984507856
1700.6305375006027 0.999999893994448
1700.63223813199 0.9999998890735681
1700.633938765079 0.9999998836110512
1700.6356393998678 0.9999998775057803
1700.6373400363575 0.9999998706242117
1700.6390406745477 0.9999998627873286
1700.6407413144386 0.9999998537515693
1700.6424419560303 0.9999998431786152
1700.6441425993223 0.9999998305875354
1700.6458432443155 0.9999998152873256
1700.6475438910088 0.9999997962465842
1700.6492445394028 0.9999997718816356
1700.6509451894979 0.9999997395774096
1700.6526458412934 0.9999996944823349
1700.6543464947895 0.9999996268982063
1700.656047149986 0.9999995193080812
1700.6577478068834 0.9999993503342351
1700.6594484654815 0.999999116847597
1700.6611491257802 0.9999988657421796
1700.6628497877796 0.9999986922138773
1700.6645504514797 0.9999986791994677
1700.6662511168802 0.9999988298362624
1700.6679517839818 0.9999990647212087
1700.6696524527838 0.9999992869544501
1700.6713531232863 0.9999994455098427
1700.6730537954897 0.9999995409459227
1700.6747544693937 0.9999995943129517
1700.6764551449987 0.9999996236789034
1700.678155822304 0.9999996391952125
1700.67985650131 0.9999996458888561
1700.6815571820168 0.9999996463723658
1700.6832578644241 0.9999996421977587
1700.6849585485324 0.9999996342857094
1700.6866592343413 0.9999996232041072
1700.6883599218506 0.9999996092884246
1700.690060611061 0.9999995927079758
1700.6917613019718 0.9999995735119562
1700.693461994583 0.9999995516553882
1700.6951626888956 0.9999995270146479
1700.6968633849087 0.999999499391015
1700.6985640826222 0.9999994685079677
1700.7002647820368 0.999999433996578
1700.7019654831518 0.999999395388778
1700.7036661859677 0.9999993521374704
1700.7053668904841 0.9999993036973617
1700.7070675967013 0.9999992495767421
1700.7087683046193 0.9999991891971268
1700.710469014238 0.9999991216019366
1700.7121697255573 0.9999990453043445
1700.7138704385775 0.9999989584296958
1700.715571153298 0.999998858873528
1700.7172718697195 0.9999987442493273
1700.7189725878418 0.9999986116438274
1700.7206733076644 0.9999984573334499
1700.7223740291881 0.9999982765349246
1700.7240747524124 0.9999980631864415
1700.7257754773375 0.9999978099057522
1700.7274762039633 0.9999975073714352
1700.72917693229 0.9999971410335552
1700.730877662317 0.9999966821983602
1700.732578394045 0.9999960807616431
1700.7342791274737 0.9999952841252756
1700.735979862603 0.99999429712085
1700.7376805994334 0.999993210282056
1700.7393813379642 0.9999921064850451
1700.7410820781959 0.999990979429525
1700.7427828201282 0.9999898620389281
1700.7444835637614 0.9999889262703672
1700.7461843090953 0.9999883444289946
1700.74788505613 0.9999882081212748
1700.749585804865 0.9999885596836212
1700.7512865553015 0.9999894186129697
1700.7529873074382 0.999990757880879
1700.7546880612758 0.999992366246732
1700.7563888168143 0.9999938419563531
1700.7580895740532 0.9999949469991193
1700.7597903329931 0.9999957345435567
1700.7614910936338 0.999996329822932
1700.7631918559753 0.9999968077000299
1700.7648926200177 0.9999972006014866
1700.7665933857602 0.9999975254416976
1700.7682941532041 0.9999977972878528
1700.7699949223486 0.999998031663205
1700.7716956931938 0.9999982397198994
1700.7733964657398 0.9999984249216113
1700.7750972399867 0.9999985863188604
1700.7767980159342 0.9999987242565906
1700.7784987935825 0.9999988417968171
1700.7801995729317 0.9999989428399674
1700.7819003539817 0.999999030637253
1700.7836011367324 0.9999991075599904
1700.7853019211836 0.9999991753608993
1700.787002707336 0.9999992354054978
1700.7887034951889 0.9999992887995263
1700.790404284743 0.9999993364527346
1700.7921050759976 0.9999993791208638
1700.7938058689529 0.9999994174391255
1700.795506663609 0.9999994519401965
1700.797207459966 0.999999483076241
1700.798908258024 0.999999511230217
1700.8006090577826 0.9999995367282798
1700.8023098592419 0.9999995598503352
1700.804010662402 0.999999580838839
1700.805711467263 0.9999995999040538
1700.8074122738249 0.9999996172273103
1700.8091130820876 0.9999996329589648
1700.810813892051 0.9999996472212443
1700.8125147037154 0.9999996601126936
1700.8142155170804 0.9999996717291797
1700.8159163321461 0.9999996821021867
1700.8176171489126 0.9999996912918666
1700.8193179673801 0.999999699316123
1700.8210187875484 0.9999997061619815
1700.8227196094176 0.9999997117714217
1700.8244204329876 0.9999997160248959
1700.8261212582584 0.9999997186879992
1700.82782208523 0.9999997192775975
1700.8295229139026 0.999999716750402
1700.831223744276 0.9999997091140921
1700.83292457635 0.999999693871723
1700.8346254101252 0.9999996708348315
1700.836326245601 0.9999996462522268
1700.8380270827777 0.9999996317614802
1700.8397279216554 0.9999996347403675
1700.8414287622338 0.999999650363261
1700.843129604513 0.9999996664494302
1700.844830448493 0.9999996741251608
1700.846531294174 0.99999967138464
1700.8482321415559 0.9999996595027327
1700.8499329906383 0.9999996393946687
1700.8516338414217 0.9999996104598691
1700.8533346939062 0.9999995706146316
1700.8550355480913 0.9999995162478689
1700.8567364039773 0.9999994413620282
1700.8584372615642 0.9999993353627329
1700.8601381208518 0.9999991772422915
1700.8618389818403 0.9999989255675242
1700.8635398445297 0.9999985174519597
1700.8652407089198 0.9999979127027568
1700.8669415750107 0.9999971861318977
1700.8686424428026 0.9999965686527366
1700.8703433122955 0.9999963193647182
1700.872044183489 0.9999965517137474
1700.8737450563838 0.9999971604749937
1700.8754459309791 0.9999978895084308
1700.8771468072755 0.9999985046023979
1700.8788476852728 0.9999989230395415
1700.8805485649707 0.99999918241983
1700.8822494463698 0.9999993460603622
1700.8839503294694 0.9999994564357302
1700.8856512142702 0.999999535226525
1700.887352100772 0.9999995933924152
1700.8890529889745 0.9999996372334347
1700.8907538788778 0.9999996708452764
1700.8924547704821 0.9999996970561474
1700.8941556637872 0.9999997178524705
1700.8958565587932 0.9999997345576191
1700.8975574555002 0.9999997480167724
