Atmospheric Species: CH4
Metallicity: 10000
C/O_Ratio: 0.5
Wavelength[nm] Flux_variation
2399.998438414741 0.9999999991344669
2400.0008384143794 0.9999999991351918
2400.0032384164174 0.9999999991359215
2400.005638420856 0.9999999991366497
2400.008038427694 0.9999999991373443
2400.0104384369324 0.9999999991379455
2400.0128384485706 0.9999999991383925
2400.015238462609 0.9999999991386658
2400.0176384790475 0.9999999991388072
2400.0200384978857 0.9999999991389029
2400.022438519124 0.9999999991390364
2400.0248385427626 0.999999999139251
2400.0272385688013 0.9999999991395339
2400.0296385972397 0.9999999991398185
2400.032038628078 0.9999999991400057
2400.0344386613165 0.9999999991400009
2400.0368386969553 0.9999999991397556
2400.039238734994 0.9999999991392905
2400.041638775433 0.9999999991386807
2400.044038818271 0.9999999991380146
2400.04643886351 0.999999999137358
2400.048838911149 0.9999999991367432
2400.0512389611877 0.9999999991361778
2400.0536390136267 0.9999999991356628
2400.0560390684655 0.9999999991352087
2400.0584391257044 0.9999999991348387
2400.060839185344 0.9999999991345838
2400.0632392473826 0.9999999991344704
2400.065639311822 0.9999999991345112
2400.068039378661 0.9999999991347
2400.0704394479008 0.9999999991350116
2400.0728395195397 0.9999999991354075
2400.075239593579 0.999999999135843
2400.077639670019 0.9999999991362758
2400.080039748859 0.9999999991366778
2400.0824398300983 0.999999999137045
2400.084839913738 0.9999999991374025
2400.087239999778 0.9999999991377918
2400.089640088218 0.9999999991382497
2400.0920401790577 0.9999999991387883
2400.094440272298 0.9999999991393944
2400.0968403679385 0.9999999991400447
2400.0992404659787 0.9999999991407248
2400.101640566419 0.9999999991414371
2400.1040406692596 0.9999999991421944
2400.1064407745002 0.9999999991430102
2400.108840882141 0.9999999991438911
2400.1112409921816 0.9999999991448392
2400.1136411046227 0.999999999145856
2400.1160412194636 0.9999999991469509
2400.118441336705 0.9999999991481381
2400.120841456346 0.9999999991494243
2400.123241578388 0.9999999991507919
2400.1256417028294 0.9999999991521921
2400.128041829671 0.9999999991535587
2400.130441958913 0.9999999991548303
2400.1328420905547 0.9999999991559644
2400.135242224597 0.9999999991569352
2400.1376423610386 0.9999999991577248
2400.140042499881 0.999999999158325
2400.1424426411236 0.9999999991587512
2400.1448427847663 0.9999999991590489
2400.1472429308087 0.9999999991592804
2400.1496430792517 0.9999999991594994
2400.152043230095 0.9999999991597347
2400.154443383338 0.9999999991599906
2400.1568435389813 0.9999999991602626
2400.159243697025 0.9999999991605475
2400.1616438574683 0.9999999991608461
2400.1640440203123 0.9999999991611589
2400.1664441855564 0.9999999991614785
2400.1688443532003 0.9999999991617841
2400.1712445232447 0.9999999991620314
2400.173644695689 0.9999999991621488
2400.1760448705336 0.9999999991620468
2400.1784450477785 0.9999999991616497
2400.1808452274236 0.999999999160933
2400.1832454094692 0.9999999991599406
2400.1856455939146 0.9999999991587665
2400.18804578076 0.9999999991575116
2400.190445970006 0.9999999991562505
2400.1928461616517 0.9999999991550231
2400.1952463556977 0.9999999991538467
2400.1976465521443 0.99999999915273
2400.200046750991 0.9999999991516775
2400.202446952238 0.9999999991506894
2400.204847155885 0.9999999991497668
2400.2072473619323 0.9999999991489215
2400.2096475703793 0.999999999148176
2400.212047781227 0.9999999991475453
2400.2144479944745 0.9999999991470145
2400.2168482101224 0.9999999991465395
2400.219248428171 0.9999999991460699
2400.221648648619 0.9999999991455771
2400.224048871468 0.9999999991450647
2400.226449096717 0.99999999914456
2400.228849324366 0.9999999991441009
2400.2312495544156 0.9999999991437277
2400.233649786865 0.999999999143481
2400.2360500217146 0.9999999991434024
2400.238450258965 0.9999999991435274
2400.240850498615 0.9999999991438729
2400.2432507406656 0.999999999144926
2400.2456509851163 0.9999999991451234
2400.2480512319676 0.9999999991459098
2400.2504514812185 0.9999999991467257
2400.2528517328706 0.9999999991475417
2400.2552519869223 0.9999999991483499
2400.257652243374 0.9999999991491502
2400.2600525022262 0.9999999991499404
2400.262452763479 0.9999999991507166
2400.2648530271317 0.9999999991514735
2400.2672532931847 0.9999999991522049
2400.2696535616383 0.9999999991529012
2400.272053832492 0.9999999991535493
2400.2744541057455 0.9999999991541385
2400.2768543813995 0.9999999991546643
2400.279254659454 0.9999999991551297
2400.281654939909 0.9999999991555406
2400.284055222764 0.9999999991559001
2400.2864555080196 0.999999999156205
2400.288855795675 0.9999999991564411
2400.2912560857308 0.9999999991565831
2400.293656378187 0.9999999991565958
2400.2960566730435 0.999999999156445
2400.2984569703003 0.9999999991561119
2400.3008572699573 0.999999999155604
2400.3032575720144 0.9999999991549602
2400.3056578764727 0.9999999991542491
2400.30805818333 0.9999999991535602
2400.3104584925886 0.9999999991529822
2400.3128588042473 0.9999999991525793
2400.315259118306 0.9999999991523769
2400.317659434765 0.9999999991523675
2400.3200597536247 0.99999999915253
2400.3224600748845 0.9999999991528492
2400.324860398545 0.9999999991533202
2400.3272607246054 0.9999999991539376
2400.329661053066 0.9999999991546796
2400.332061383927 0.9999999991555055
2400.3344617171883 0.9999999991563712
2400.3368620528504 0.9999999991572479
2400.3392623909126 0.9999999991581267
2400.341662731375 0.9999999991590005
2400.344063074238 0.9999999991598433
2400.346463419501 0.9999999991606034
2400.3488637671644 0.9999999991612213
2400.3512641172283 0.9999999991616596
2400.3536644696924 0.9999999991619251
2400.356064824557 0.9999999991620672
2400.358465181822 0.9999999991621598
2400.3608655414873 0.9999999991622788
2400.363265903553 0.9999999991624896
2400.365666268019 0.9999999991628394
2400.3680666348855 0.9999999991633488
2400.370467004152 0.9999999991640068
2400.372867375819 0.9999999991647752
2400.375267749887 0.9999999991656031
2400.377668126355 0.999999999166447
2400.380068505223 0.9999999991672818
2400.3824688864916 0.9999999991680999
2400.3848692701604 0.9999999991689037
2400.38726965623 0.9999999991696961
2400.3896700446994 0.9999999991704763
2400.3920704355696 0.9999999991712379
2400.394470828841 0.9999999991719664
2400.3968712245114 0.9999999991726412
2400.3992716225825 0.9999999991732446
2400.4016720230543 0.9999999991737722
2400.404072425926 0.9999999991742407
2400.4064728311987 0.9999999991746866
2400.408873238872 0.9999999991751585
2400.411273648945 0.9999999991756972
2400.4136740614185 0.9999999991763128
2400.416074476293 0.9999999991769668
2400.4184748935677 0.9999999991775823
2400.4208753132425 0.9999999991780794
2400.423275735318 0.9999999991784176
2400.425676159794 0.9999999991786105
2400.42807658667 0.9999999991787083
2400.430477015947 0.9999999991787669
2400.432877447624 0.9999999991788283
2400.435277881702 0.9999999991789227
2400.43767831818 0.9999999991790776
2400.440078757058 0.999999999179319
2400.442479198337 0.9999999991796592
2400.444879642016 0.9999999991800848
2400.447280088096 0.9999999991805583
2400.449680536576 0.9999999991810306
2400.4520809874566 0.9999999991814527
2400.4544814407377 0.9999999991817818
2400.4568818964194 0.9999999991819869
2400.4592823545017 0.9999999991820531
2400.461682814984 0.9999999991819825
2400.4640832778673 0.9999999991817851
2400.4664837431505 0.9999999991814711
2400.4688842108344 0.999999999181049
2400.471284680919 0.9999999991805358
2400.4736851534035 0.9999999991799688
2400.476085628289 0.9999999991794094
2400.4784861055746 0.9999999991789303
2400.480886585261 0.999999999178591
2400.4832870673476 0.9999999991784163
2400.485687551835 0.9999999991783973
2400.4880880387227 0.9999999991785048
2400.490488528011 0.9999999991787094
2400.4928890196993 0.9999999991789934
2400.495289513789 0.9999999991793527
2400.4976900102783 0.9999999991797938
2400.5000905091683 0.9999999991803248
2400.5024910104594 0.9999999991809415
2400.5048915141506 0.9999999991816165
2400.5072920202424 0.9999999991822967
2400.5096925287344 0.9999999991829117
2400.512093039627 0.9999999991833958
2400.5144935529206 0.9999999991837155
2400.516894068614 0.9999999991838888
2400.519294586708 0.9999999991839822
2400.521695107203 0.999999999184081
2400.524095630098 0.9999999991842514
2400.526496155394 0.9999999991845179
2400.5288966830904 0.9999999991848658
2400.531297213187 0.9999999991852562
2400.5336977456845 0.9999999991856423
2400.5360982805823 0.9999999991859773
2400.5384988178807 0.9999999991862204
2400.5408993575797 0.9999999991863406
2400.54329989968 0.9999999991863174
2400.5457004441796 0.9999999991861338
2400.54810099108 0.9999999991857739
2400.5505015403814 0.9999999991852283
2400.552902092083 0.9999999991845098
2400.5553026461853 0.9999999991836594
2400.557703202688 0.9999999991827384
2400.560103761591 0.9999999991818066
2400.5625043228956 0.9999999991809035
2400.5649048866 0.9999999991800376
2400.5673054527047 0.9999999991791889
2400.56970602121 0.9999999991783322
2400.5721065921166 0.9999999991774708
2400.5745071654233 0.99999999917666
2400.576907741131 0.9999999991759911
2400.579308319239 0.9999999991755405
2400.5817088997474 0.9999999991753247
2400.5841094826565 0.9999999991752968
2400.586510067966 0.9999999991753845
2400.5889106556765 0.9999999991755272
2400.5913112457874 0.9999999991756936
2400.5937118382985 0.999999999175882
2400.5961124332107 0.9999999991761147
2400.5985130305235 0.9999999991764266
2400.6009136302364 0.9999999991768468
2400.6033142323504 0.9999999991773775
2400.605714836865 0.9999999991779864
2400.6081154437798 0.9999999991786217
2400.6105160530956 0.9999999991792398
2400.6129166648116 0.9999999991798264
2400.6153172789286 0.999999999180393
2400.617717895446 0.9999999991809597
2400.620118514364 0.9999999991815373
2400.622519135683 0.9999999991821228
2400.6249197594025 0.9999999991827052
2400.627320385522 0.9999999991832711
2400.629721014043 0.9999999991838096
2400.632121644964 0.9999999991843098
2400.634522278286 0.9999999991847622
2400.6369229140087 0.9999999991851592
2400.6393235521314 0.999999999185501
2400.641724192655 0.9999999991857984
2400.6441248355795 0.9999999991860695
2400.646525480905 0.9999999991863309
2400.6489261286306 0.9999999991865898
2400.651326778757 0.9999999991868449
2400.6537274312836 0.9999999991870927
2400.6561280862115 0.9999999991873354
2400.6585287435396 0.9999999991875806
2400.6609294032687 0.999999999187837
2400.6633300653984 0.999999999188107
2400.665730729929 0.9999999991883837
2400.6681313968597 0.9999999991886531
2400.6705320661913 0.9999999991888965
2400.6729327379235 0.9999999991890876
2400.6753334120563 0.9999999991891944
2400.67773408859 0.9999999991891807
2400.680134767524 0.9999999991890165
2400.682535448859 0.9999999991886858
2400.684936132595 0.9999999991881872
2400.6873368187316 0.9999999991875297
2400.6897375072685 0.9999999991867246
2400.6921381982065 0.9999999991857811
2400.694538891545 0.9999999991847054
2400.6969395872843 0.9999999991834995
2400.699340285424 0.9999999991821541
2400.7017409859645 0.9999999991806402
2400.704141688906 0.9999999991789008
2400.706542394248 0.9999999991768627
2400.708943101991 0.9999999991744704
2400.711343812134 0.9999999991717351
2400.713744524678 0.999999999168771
2400.716145239623 0.999999999165786
2400.7185459569682 0.9999999991630066
2400.7209466767144 0.9999999991605747
2400.7233473988613 0.9999999991584646
2400.7257481234087 0.9999999991564984
2400.7281488503572 0.9999999991544304
2400.7305495797063 0.9999999991520458
2400.7329503114565 0.9999999991492514
2400.735351045607 0.9999999991461732
2400.7377517821583 0.9999999991432489
2400.7401525211103 0.9999999991411923
2400.742553262463 0.9999999991407289
2400.7449540062166 0.9999999991422065
2400.747354752371 0.999999999145377
2400.749755500926 0.9999999991495481
2400.752156251882 0.9999999991539736
2400.754557005238 0.9999999991581685
2400.7569577609956 0.9999999991619707
2400.7593585191535 0.9999999991654263
2400.7617592797124 0.9999999991686599
2400.764160042672 0.9999999991718063
2400.7665608080324 0.9999999991749763
2400.7689615757936 0.9999999991782246
2400.7713623459554 0.9999999991815182
2400.7737631185178 0.9999999991847509
2400.776163893481 0.9999999991877896
2400.7785646708453 0.9999999991905286
2400.7809654506104 0.9999999991929244
2400.783366232776 0.9999999991950081
2400.7857670173426 0.9999999991968783
2400.78816780431 0.9999999991986714
2400.790568593678 0.9999999992005095
2400.792969385447 0.9999999992024462
2400.795370179617 0.999999999204444
2400.797770976187 0.999999999206355
2400.8001717751586 0.9999999992080091
2400.8025725765306 0.9999999992093453
2400.8049733803036 0.9999999992103423
2400.8073741864773 0.9999999992110126
2400.8097749950516 0.9999999992113888
2400.8121758060265 0.9999999992115082
2400.8145766194034 0.9999999992113977
2400.81697743518 0.9999999992110641
2400.819378253358 0.9999999992104959
2400.821779073937 0.9999999992096711
2400.8241798969157 0.9999999992085643
2400.826580722296 0.999999999207172
2400.828981550077 0.9999999992055842
2400.831382380259 0.9999999992040995
2400.8337832128414 0.9999999992032906
2400.8361840478256 0.9999999992038797
2400.8385848852095 0.9999999992064044
2400.8409857249944 0.9999999992108981
2400.843386567181 0.9999999992168564
2400.8457874117676 0.9999999992232289
2400.8481882587557 0.9999999992292309
2400.850589108144 0.9999999992348177
2400.8529899599334 0.9999999992398491
2400.855390814124 0.9999999992443602
2400.857791670715 0.9999999992484523
2400.860192529707 0.9999999992522318
2400.8625933911 0.9999999992557949
2400.8649942548936 0.9999999992592259
2400.867395121088 0.9999999992625923
2400.8697959896836 0.9999999992659395
2400.87219686068 0.9999999992692874
2400.8745977340773 0.9999999992726344
2400.876998609875 0.9999999992759637
2400.8793994880743 0.9999999992792491
2400.8818003686742 0.9999999992824633
2400.8842012516748 0.9999999992855907
2400.8866021370764 0.9999999992886333
2400.889003024879 0.9999999992916037
2400.8914039150823 0.9999999992945132
2400.8938048076866 0.9999999992973668
2400.8962057026915 0.9999999993001645
2400.8986066000975 0.9999999993029033
2400.9010074999046 0.9999999993055705
2400.9034084021123 0.999999999308141
2400.9058093067215 0.9999999993105821
2400.908210213731 0.9999999993128641
2400.9106111231413 0.9999999993149636
2400.9130120349528 0.9999999993168618
2400.9154129491653 0.9999999993185515
2400.917813865779 0.9999999993200562
2400.9202147847927 0.9999999993214377
2400.9226157062076 0.9999999993227765
2400.925016630024 0.999999999324136
2400.927417556241 0.9999999993255392
2400.929818484859 0.9999999993269736
2400.932219415878 0.9999999993283993
2400.934620349298 0.9999999993297481
2400.9370212851186 0.9999999993309185
2400.93942222334 0.9999999993317993
2400.9418231639625 0.9999999993323209
2400.944224106986 0.9999999993325035
2400.9466250524106 0.9999999993324548
2400.949026000236 0.999999999332321
2400.9514269504625 0.9999999993322316
2400.95382790309 0.9999999993322717
2400.956228858118 0.9999999993324861
2400.9586298155473 0.9999999993328925
2400.9610307753774 0.9999999993334187
2400.963431737609 0.9999999993339238
2400.9658327022407 0.9999999993345827
2400.968233669274 0.9999999993353557
2400.9706346387084 0.9999999993361972
2400.9730356105433 0.9999999993370656
2400.975436584779 0.9999999993379272
2400.9778375614164 0.9999999993387609
2400.980238540454 0.9999999993395574
2400.9826395218934 0.9999999993403199
2400.985040505733 0.9999999993410656
2400.987441491974 0.9999999993418297
2400.989842480616 0.9999999993426604
2400.9922434716586 0.9999999993436023
2400.9946444651027 0.9999999993446739
2400.9970454609474 0.9999999993458524
2400.999446459193 0.9999999993470853
2401.00184745984 0.999999999348323
2401.004248462888 0.9999999993495519
2401.006649468337 0.9999999993508083
2401.009050476187 0.9999999993521648
2401.0114514864376 0.9999999993537009
2401.0138524990894 0.9999999993554758
2401.0162535141426 0.9999999993574303
2401.0186545315964 0.9999999993593983
2401.0210555514514 0.9999999993613481
2401.0234565737073 0.9999999993632526
2401.025857598364 0.9999999993650989
2401.028258625422 0.9999999993668912
2401.030659654881 0.9999999993686475
2401.0330606867415 0.9999999993703922
2401.0354617210023 0.999999999372147
2401.0378627576647 0.9999999993739205
2401.0402637967277 0.9999999993757075
2401.042664838192 0.9999999993774975
2401.0450658820573 0.9999999993792863
2401.0474669283235 0.9999999993810788
2401.0498679769908 0.999999999382883
2401.052269028059 0.9999999993846994
2401.054670081529 0.9999999993835634
2401.0570711373994 0.9999999993811753
2401.059472195671 0.9999999993789337
2401.0618732563435 0.9999999993768397
2401.064274319417 0.9999999993748776
2401.0666753848914 0.9999999993730414
2401.0690764527676 0.999999999371329
2401.0714775230445 0.9999999993697324
2401.0738785957224 0.9999999993682351
2401.076279670802 0.9999999993668159
2401.0786807482814 0.9999999993654566
2401.081081828163 0.9999999993641467
2401.083482910445 0.9999999993628846
2401.0858839951284 0.9999999993616758
2401.088285082213 0.9999999993605306
2401.0906861716985 0.9999999993594602
2401.0930872635854 0.9999999993584673
2401.095488357873 0.9999999993575408
2401.097889454562 0.9999999993566557
2401.100290553651 0.9999999993557843
2401.1026916551423 0.9999999993549111
2401.1050927590345 0.9999999993540446
2401.107493865328 0.9999999993532193
2401.1098949740217 0.9999999993524867
2401.112296085117 0.9999999993518992
2401.114697198614 0.9999999993514865
2401.1170983145116 0.9999999993512436
2401.1194994328107 0.9999999993511375
2401.12190055351 0.9999999993511279
2401.1243016766116 0.9999999993511959
2401.1267028021134 0.9999999993513572
2401.1291039300168 0.9999999993516557
2401.131505060321 0.9999999993521378
2401.1339061930266 0.9999999993528242
2401.1363073281336 0.9999999993537055
2401.138708465641 0.9999999993547606
2401.14110960555 0.9999999993559744
2401.14351074786 0.9999999993573335
2401.1459118925713 0.9999999993588109
2401.1483130396837 0.9999999993603644
2401.150714189197 0.9999999993619563
2401.153115341112 0.99999999936357
2401.1555164954275 0.9999999993652108
2401.1579176521445 0.9999999993668897
2401.160318811263 0.9999999993685773
2401.1627199727823 0.9999999993702379
2401.1651211367025 0.9999999993718662
2401.1675223030243 0.999999999373435
2401.169923471747 0.9999999993749046
2401.172324642871 0.9999999993762367
2401.174725816396 0.9999999993774118
2401.1771269923224 0.9999999993784454
2401.17952817065 0.9999999993794004
2401.1819293513786 0.9999999993803755
2401.1843305345087 0.9999999993814689
2401.1867317200395 0.9999999993827302
2401.1891329079717 0.9999999993841393
2401.1915340983055 0.9999999993856247
2401.19393529104 0.9999999993871047
2401.196336486176 0.9999999993885176
2401.198737683713 0.9999999993898312
2401.201138883651 0.9999999993910458
2401.2035400859904 0.9999999993922043
2401.205941290731 0.999999999393399
2401.2083424978728 0.9999999993947505
2401.210743707416 0.9999999993963558
2401.21314491936 0.9999999993982375
2401.215546133705 0.9999999994003378
2401.217947350452 0.9999999994025583
2401.2203485695995 0.9999999994000617
2401.2227497911485 0.999999999395127
2401.225151015099 0.99999999939055
2401.2275522414507 0.9999999993863916
2401.2299534702033 0.9999999993826749
2401.2323547013575 0.9999999993794247
2401.2347559349128 0.9999999993766464
2401.237157170869 0.9999999993742992
2401.239558409227 0.9999999993723054
2401.241959649986 0.9999999993705802
2401.244360893146 0.9999999993690629
2401.2467621387077 0.9999999993677229
2401.2491633866703 0.999999999366546
2401.251564637034 0.9999999993655196
2401.253965889799 0.9999999993646195
2401.2563671449657 0.9999999993638087
2401.2587684025334 0.9999999993630441
2401.261169662502 0.9999999993622845
2401.263570924872 0.999999999361497
2401.2659721896434 0.9999999993606578
2401.2683734568163 0.9999999993597478
2401.2707747263903 0.9999999993587532
2401.273175998366 0.9999999993576683
