Atmospheric Species: CO
Metallicity: 100
C/O_Ratio: 0.5
Wavelength[nm] Flux_variation
1199.9994359108223 1.0
1200.0006359108581 0.9999999999458828
1200.001835912094 0.9999999998892217
1200.0030359145298 0.9999999998300111
1200.0042359181657 0.9999999997682739
1200.0054359230016 0.9999999997040073
1200.0066359290374 0.9999999996372172
1200.0078359362733 0.9999999995679105
1200.0090359447092 0.9999999994960794
1200.010235954345 0.9999999994217426
1200.011435965181 0.9999999993448949
1200.0126359772169 0.9999999992655358
1200.013835990453 0.9999999991836787
1200.015036004889 0.9999999990993315
1200.0162360205247 0.9999999990124592
1200.0174360373605 0.9999999989231141
1200.0186360553967 0.9999999988312568
1200.0198360746326 0.9999999987369128
1200.021036095069 0.9999999986400743
1200.0222361167048 0.9999999985407437
1200.023436139541 0.9999999984388984
1200.024636163577 0.9999999983345711
1200.0258361888132 0.9999999982277401
1200.0270362152494 0.9999999981184122
1200.0282362428854 0.9999999980065829
1200.0294362717216 0.9999999978927908
1200.030636301758 0.9999999977762565
1200.031836332994 0.9999999976572276
1200.0330363654305 0.9999999975356862
1200.034236399067 0.9999999974116192
1200.0354364339032 0.9999999972850414
1200.0366364699396 0.9999999971559131
1200.037836507176 0.9999999970242657
1200.0390365456126 0.9999999968900939
1200.040236585249 0.9999999967533728
1200.0414366260857 0.999999996614104
1200.0426366681224 0.9999999964722833
1200.043836711359 0.9999999963279019
1200.0450367557955 0.9999999961809495
1200.0462368014323 0.9999999960314142
1200.0474368482692 0.9999999958793064
1200.048636896306 0.9999999957249586
1200.049836945543 0.9999999955683206
1200.0510369959798 0.9999999954090716
1200.0522370476167 0.9999999952472014
1200.0534371004537 0.9999999950826997
1200.0546371544908 0.9999999949155689
1200.055837209728 0.9999999947457765
1200.0570372661653 0.9999999945733181
1200.0582373238024 0.999999994398201
1200.0594373826398 0.9999999942203892
1200.060637442677 0.9999999940398715
1200.0618375039146 0.9999999938566472
1200.063037566352 0.9999999936706923
1200.0642376299897 0.9999999934820009
1200.0654376948273 0.9999999932905548
1200.066637760865 0.9999999930963452
1200.0678378281027 0.9999999928993368
1200.0690378965403 0.9999999926995442
1200.0702379661784 0.9999999924969352
1200.0714380370162 0.9999999922914813
1200.0726381090542 0.9999999920831782
1200.0738381822923 0.9999999918720187
1200.0750382567305 0.9999999916579622
1200.0762383323686 0.9999999914410057
1200.077438409207 0.9999999912211252
1200.0786384872454 0.9999999909983035
1200.0798385664839 0.9999999907725046
1200.0810386469223 0.9999999905437321
1200.082238728561 0.9999999903119542
1200.0834388113997 0.9999999900771396
1200.0846388954385 0.9999999898392837
1200.0858389806772 0.9999999895983424
1200.0870390671162 0.9999999893543154
1200.0882391547552 0.9999999891071668
1200.0894392435946 0.9999999888568676
1200.0906393336338 0.999999988603402
1200.0918394248731 0.9999999883467408
1200.0930395173125 0.9999999880868545
1200.0942396109522 0.9999999878237064
1200.0954397057917 0.9999999875572957
1200.0966398018313 0.9999999872875646
1200.097839899071 0.9999999870145048
1200.099039997511 0.9999999867380728
1200.100240097151 0.999999986458246
1200.1014401979912 0.9999999861750107
1200.1026403000312 0.9999999858882918
1200.1038404032715 0.999999985598097
1200.1050405077121 0.9999999853043723
1200.1062406133526 0.9999999850070842
1200.1074407201932 0.9999999847062062
1200.108640828234 0.9999999844017069
1200.1098409374747 0.999999984093525
1200.1110410479157 0.9999999837816501
1200.1122411595568 0.9999999834660386
1200.113441272398 0.9999999831466465
1200.1146413864392 0.9999999828234348
1200.1158415016805 0.9999999824963672
1200.1170416181221 0.9999999821653855
1200.1182417357636 0.9999999818304781
1200.1194418546054 0.9999999814915844
1200.1206419746472 0.9999999811486605
1200.1218420958892 0.9999999808016505
1200.1230422183314 0.999999980450537
1200.1242423419737 0.9999999800952475
1200.125442466816 0.999999979735748
1200.1266425928584 0.9999999793719789
1200.1278427201012 0.9999999790039044
1200.1290428485438 0.9999999786314622
1200.1302429781867 0.999999978254604
1200.1314431090298 0.9999999778732803
1200.1326432410729 0.9999999774874245
1200.133843374316 0.9999999770969996
1200.1350435087595 0.9999999767019382
1200.136243644403 0.9999999763021898
1200.1374437812467 0.9999999758976822
1200.1386439192906 0.9999999754883587
1200.1398440585344 0.9999999750741713
1200.1410441989785 0.9999999746550378
1200.1422443406227 0.9999999742309141
1200.1434444834672 0.9999999738017252
1200.1446446275115 0.9999999733674009
1200.1458447727564 0.9999999729278707
1200.147044919201 0.9999999724830831
1200.1482450668461 0.9999999720329474
1200.149445215691 0.9999999715774128
1200.1506453657364 0.9999999711163742
1200.1518455169817 0.9999999706497656
1200.1530456694272 0.9999999701775315
1200.154245823073 0.9999999696995703
1200.1554459779188 0.9999999692158111
1200.1566461339648 0.9999999687310358
1200.157846291211 0.9999999682469073
1200.1590464496574 0.9999999677567136
1200.1602466093038 0.9999999672603712
1200.1614467701506 0.9999999667578063
1200.1626469321973 0.999999966248915
1200.1638470954442 0.9999999657336087
1200.1650472598915 0.9999999652118026
1200.1662474255388 0.9999999646833535
1200.1674475923862 0.9999999641482239
1200.1686477604337 0.9999999636062691
1200.1698479296817 0.9999999630573888
1200.1710481001296 0.9999999625014897
1200.1722482717778 0.9999999619384604
1200.173448444626 0.9999999613681866
1200.1746486186746 0.9999999607905342
1200.1758487939233 0.9999999602054226
1200.177048970372 0.9999999596127123
1200.178249148021 0.9999999590122927
1200.17944932687 0.9999999584040109
1200.1806495069195 0.9999999577877787
1200.181849688169 0.9999999571634245
1200.1830498706188 0.9999999565308519
1200.184250054269 0.999999955889892
1200.1854502391188 0.9999999552404462
1200.186650425169 0.9999999545823213
1200.1878506124197 0.9999999539154073
1200.1890508008703 0.9999999532395545
1200.1902509905212 0.9999999525545837
1200.1914511813723 0.999999951860366
1200.1926513734234 0.9999999511567279
1200.1938515666748 0.9999999504434872
1200.1950517611263 0.999999949720507
1200.1962519567783 0.999999948987616
1200.1974521536301 0.9999999482446118
1200.1986523516825 0.9999999474913199
1200.1998525509348 0.9999999467275877
1200.2010527513876 0.9999999459531935
1200.2022529530402 0.9999999451679579
1200.2034531558932 0.9999999443716854
1200.2046533599464 0.9999999435641469
1200.2058535651997 0.9999999427451501
1200.2070537716534 0.9999999419145117
1200.2082539793073 0.9999999410719592
1200.2094541881613 0.9999999402172958
1200.2106543982154 0.9999999393503028
1200.2118546094698 0.9999999384707376
1200.2130548219245 0.9999999375783513
1200.2142550355793 0.9999999366728817
1200.2154552504344 0.9999999357541217
1200.2166554664896 0.999999934821784
1200.2178556837453 0.9999999338755923
1200.219055902201 0.9999999329152776
1200.220256121857 0.9999999319405606
1200.221456342713 0.9999999309511766
1200.2226565647693 0.999999929946812
1200.223856788026 0.9999999289271422
1200.225057012483 0.9999999278918925
1200.22625723814 0.9999999268407432
1200.2274574649973 0.9999999257733179
1200.2286576930549 0.9999999246893443
1200.2298579223127 0.9999999235884334
1200.2310581527706 0.9999999224702467
1200.2322583844289 0.9999999213344062
1200.2334586172874 0.9999999201805508
1200.234658851346 0.9999999190082822
1200.235859086605 0.999999917817285
1200.2370593230642 0.9999999166070286
1200.2382595607235 0.9999999153771563
1200.239459799583 0.9999999141272421
1200.240660039643 0.9999999128568127
1200.2418602809032 0.9999999115654455
1200.2430605233635 0.9999999102526849
1200.2442607670241 0.9999999089180334
1200.245461011885 0.9999999075609707
1200.2466612579462 0.9999999061810173
1200.2478615052075 0.9999999047776569
1200.249061753669 0.9999999033503318
1200.2502620033308 0.9999999018985207
1200.251462254193 0.999999900421632
1200.252662506255 0.9999998989190447
1200.253862759518 0.9999998973901733
1200.2550630139808 0.9999998958344501
1200.2562632696438 0.9999998942511708
1200.257463526507 0.9999998926397239
1200.2586637845707 0.9999998909993715
1200.2598640438346 0.9999998893294055
1200.2610643042988 0.9999998876291775
1200.262264565963 0.9999998858978939
1200.2634648288276 0.999999884134729
1200.2646650928928 0.9999998823389866
1200.265865358158 0.9999998805098144
1200.2670656246232 0.999999878646385
1200.268265892289 0.9999998767477192
1200.269466161155 0.9999998748130243
1200.2706664312213 0.9999998728413625
1200.2718667024878 0.9999998708317078
1200.2730669749546 0.999999868783108
1200.2742672486218 0.9999998666945663
1200.275467523489 0.999999864564964
1200.2766677995567 0.9999998623932379
1200.2778680768245 0.9999998601782603
1200.2790683552926 0.9999998579187919
1200.280268634961 0.9999998556137266
1200.2814689158297 0.9999998532617315
1200.2826691978987 0.9999998508615612
1200.283869481168 0.9999998484117988
1200.2850697656377 0.9999998459111491
1200.2862700513074 0.9999998433581075
1200.2874703381776 0.999999840751173
1200.288670626248 0.9999998380888284
1200.2898709155188 0.9999998353695384
1200.2910712059897 0.9999998325915204
1200.2922714976612 0.9999998297530974
1200.2934717905325 0.9999998268525616
1200.2946720846046 0.999999823887931
1200.2958723798768 0.999999820857378
1200.2970726763492 0.9999998177589176
1200.298272974022 0.9999998145903776
1200.299473272895 0.9999998113497031
1200.3006735729684 0.9999998080346477
1200.3018738742421 0.9999998046428491
1200.303074176716 0.9999998011719434
1200.3042744803904 0.9999997976194293
1200.305474785265 0.9999997939826558
1200.3066750913397 0.9999997902589506
1200.307875398615 0.9999997864454583
1200.3090757070904 0.9999997825392704
1200.3102760167665 0.9999997785373171
1200.3114763276424 0.9999997744364238
1200.3126766397188 0.9999997702332566
1200.3138769529955 0.9999997659243414
1200.3150772674728 0.9999997615061174
1200.3162775831502 0.9999997569748046
1200.3174779000278 0.9999997523264216
1200.3186782181058 0.9999997475569645
1200.3198785373843 0.9999997426620917
1200.3210788578629 0.9999997376373712
1200.3222791795417 0.9999997324781909
1200.323479502421 0.999999727179589
1200.3246798265006 0.9999997217363984
1200.3258801517807 0.9999997161433121
1200.327080478261 0.9999997103948998
1200.3282808059414 0.9999997044851412
1200.3294811348223 0.9999996984080473
1200.3306814649036 0.9999996921570414
1200.3318817961851 0.9999996857254881
1200.3330821286672 0.9999996791063418
1200.3342824623494 0.9999996722921675
1200.335482797232 0.9999996652751773
1200.336683133315 0.9999996580468349
1200.3378834705984 0.9999996505986775
1200.3390838090818 0.9999996429219725
1200.3402841487657 0.9999996350072149
1200.34148448965 0.9999996268443906
1200.3426848317345 0.9999996184230834
1200.3438851750195 0.9999996097322549
1200.3450855195047 0.9999996007600793
1200.3462858651903 0.9999995914943715
1200.3474862120763 0.9999995819220842
1200.3486865601626 0.999999572029628
1200.3498869094492 0.9999995618024197
1200.3510872599363 0.9999995512251342
1200.3522876116235 0.9999995402818198
1200.3534879645113 0.9999995289550228
1200.3546883185993 0.9999995172269416
1200.3558886738876 0.9999995050781353
1200.3570890303765 0.9999994924884164
1200.3582893880655 0.9999994794359802
1200.3594897469552 0.999999465897922
1200.3606901070452 0.9999994518499925
1200.3618904683356 0.999999437266178
1200.363090830826 0.9999994221189558
1200.3642911945171 0.9999994063787602
1200.3654915594084 0.9999993900144379
1200.3666919255 0.9999993729926379
1200.367892292792 0.9999993552776704
1200.3690926612844 0.9999993368315994
1200.3702930309773 0.9999993176132915
1200.3714934018706 0.9999992975795116
1200.372693773964 0.9999992766834066
1200.373894147258 0.9999992548750022
1200.3750945217523 0.9999992321005207
1200.376294897447 0.9999992083024377
1200.377495274342 0.9999991834182262
1200.3786956524375 0.9999991573814078
1200.379896031733 0.9999991301197544
1200.3810964122295 0.9999991015556613
1200.382296793926 0.9999990716054789
1200.3834971768229 0.9999990401777272
1200.3846975609201 0.9999990071748184
1200.385897946218 0.9999989724896167
1200.387098332716 0.9999989360067272
1200.3882987204145 0.9999988976006817
1200.3894991093134 0.9999988571342225
1200.3906994994124 0.9999988144581949
1200.3918998907125 0.999998769409909
1200.3931002832123 0.9999987218111267
1200.3943006769127 0.9999986714672633
1200.3955010718137 0.9999986181639421
1200.396701467915 0.9999985616667895
1200.3979018652165 0.9999985017169604
1200.3991022637185 0.9999984380297519
1200.400302663421 0.9999983702895254
1200.4015030643238 0.99999829814847
1200.402703466427 0.9999982212195514
1200.4039038697306 0.9999981390720086
1200.4051042742346 0.9999980512299332
1200.406304679939 0.9999979571037697
1200.407505086844 0.999997856195678
1200.4087054949491 0.9999977477879247
1200.4099059042549 0.9999976311253542
1200.411106314761 0.9999975053465475
1200.4123067264675 0.9999973695086879
1200.4135071393741 0.9999972224395359
1200.4147075534815 0.9999970630291722
1200.4159079687893 0.9999968897974095
1200.4171083852973 0.9999967011232206
1200.4183088030059 0.9999964951422001
1200.419509221915 0.9999962697099712
1200.4207096420243 0.9999960223371026
1200.421910063334 0.9999957501379099
1200.4231104858443 0.9999954497505168
1200.4243109095548 0.9999951172395097
1200.4255113344661 0.9999947479793082
1200.4267117605775 0.999994336516734
1200.4279121878894 0.9999938763901467
1200.4291126164019 0.9999933599175973
1200.4303130461146 0.999992777926258
1200.431513477028 0.9999921194341327
1200.4327139091415 0.9999913712324501
1200.4339143424556 0.9999905173860032
1200.43511477697 0.9999895386501222
1200.436315212685 0.9999884117089748
1200.4375156496003 0.9999871083377141
1200.4387160877163 0.9999855938633733
1200.4399165270324 0.9999838273723988
1200.4411169675493 0.9999817580674663
1200.4423174092665 0.9999793228496814
1200.4435178521837 0.999976437354716
1200.444718296302 0.9999729570010817
1200.4459187416205 0.9999685410811345
1200.4471191881394 0.9999623511979266
1200.4483196358588 0.9999532175605329
1200.4495200847784 0.9999419541856709
1200.450720534899 0.9999321770981621
1200.4519209862194 0.9999257206561116
1200.4531214387407 0.9999224270641388
1200.4543218924623 0.9999220677898026
1200.4555223473844 0.9999246204885519
1200.4567228035069 0.9999302585299159
1200.4579232608298 0.9999392565694399
1200.4591237193533 0.9999504994806333
1200.4603241790771 0.9999603874174051
1200.4615246400015 0.9999672166773363
1200.4627251021263 0.9999719686370847
1200.4639255654517 0.999975636195782
1200.4651260299775 0.99997865173199
1200.4663264957037 0.9999811893071542
1200.4675269626302 0.9999833429773975
1200.4687274307573 0.999985179374066
1200.469927900085 0.9999867521664373
1200.471128370613 0.9999881042186975
1200.4723288423418 0.999989271937919
1200.4735293152708 0.9999902849410081
1200.4747297894003 0.9999911676729302
1200.4759302647303 0.9999919403211514
1200.477130741261 0.9999926195688424
1200.4783312189918 0.9999932192609507
1200.4795316979232 0.999993750894035
1200.480732178055 0.999994224052169
1200.4819326593872 0.9999946467639075
1200.48313314192 0.999995025769345
1200.4843336256533 0.9999953667550668
1200.4855341105872 0.9999956745394866
1200.4867345967214 0.9999959532147576
1200.487935084056 0.9999962062785586
1200.4891355725915 0.9999964367271064
1200.4903360623273 0.9999966471373797
1200.4915365532636 0.9999968397394311
1200.4927370454004 0.9999970164577832
1200.4939375387376 0.9999971789758823
1200.4951380332755 0.9999973288200444
1200.4963385290137 0.999997467137197
1200.4975390259524 0.9999975951365109
1200.4987395240917 0.9999977137928203
1200.4999400234312 0.9999978239928866
1200.5011405239716 0.999997926514752
1200.5023410257122 0.9999980220962695
1200.5035415286536 0.9999981112507981
1200.5047420327953 0.9999981945837858
1200.5059425381376 0.9999982725838195
1200.5071430446803 0.9999983456945162
1200.5083435524236 0.9999984143116322
1200.5095440613673 0.9999984787934527
1200.5107445715116 0.9999985394626064
1200.5119450828565 0.9999985966110513
1200.5131455954017 0.9999986505043208
1200.5143461091475 0.9999987013819915
1200.5155466240938 0.9999987494632581
1200.5167471402408 0.9999987949477562
1200.5179476575881 0.9999988380175782
1200.5191481761358 0.9999988788390515
1200.5203486958844 0.9999989175643826
1200.5215492168331 0.9999989543334323
1200.5227497389826 0.9999989892750417
1200.5239502623326 0.9999990225068661
1200.5251507868832 0.99999905413776
1200.526351312634 0.9999990842680149
1200.5275518395856 0.9999991129899105
1200.5287523677375 0.9999991403895507
1200.5299528970902 0.9999991665458888
1200.5311534276432 0.9999991915321881
1200.532353959397 0.9999992154166677
1200.5335544923512 0.9999992382624474
1200.534755026506 0.9999992601284068
1200.535955561861 0.9999992810692221
1200.537156098417 0.9999993011357049
1200.5383566361734 0.9999993203754685
1200.53955717513 0.9999993388328825
1200.5407577152876 0.9999993565493318
1200.5419582566456 0.999999373563344
1200.5431587992039 0.9999993899114832
1200.544359342963 0.9999994056273535
1200.5455598879225 0.9999994207430578
1200.5467604340827 0.9999994352882124
1200.5479609814433 0.9999994492908475
1200.5491615300048 0.9999994627775293
1200.5503620797663 0.999999475772703
1200.5515626307288 0.9999994882996767
1200.5527631828916 0.9999995003806506
1200.553963736255 0.9999995120360854
1200.5551642908188 0.9999995232855813
1200.5563648465834 0.9999995341472979
1200.5575654035486 0.9999995446388479
1200.5587659617142 0.9999995547765979
1200.5599665210802 0.9999995645759844
1200.561167081647 0.9999995740516144
1200.5623676434145 0.999999583217499
1200.5635682063823 0.9999995920867837
1200.5647687705507 0.9999996006718629
1200.5659693359198 0.9999996089845073
1200.5671699024892 0.9999996170361242
1200.5683704702594 0.9999996248372167
1200.5695710392304 0.9999996323979743
1200.5707716094014 0.9999996397278127
1200.5719721807734 0.9999996468360669
1200.5731727533457 0.9999996537313687
1200.5743733271188 0.9999996604218647
1200.5755739020922 0.9999996669155456
1200.5767744782663 0.9999996732199099
1200.577975055641 0.9999996793420219
1200.5791756342164 0.9999996852887975
1200.5803762139922 0.9999996910665516
1200.5815767949687 0.9999996966817387
1200.5827773771457 0.9999997021399979
1200.5839779605233 0.9999997074471805
1200.5851785451016 0.9999997126085647
1200.5863791308805 0.9999997176293686
1200.5875797178599 0.9999997225144406
1200.5887803060398 0.9999997272687685
1200.5899808954202 0.9999997318965302
1200.5911814860015 0.9999997364022106
1200.5923820777832 0.9999997407900116
1200.5935826707655 0.9999997450636945
1200.5947832649483 0.9999997492272841
1200.595983860332 0.9999997532842807
1200.597184456916 0.9999997572382566
1200.5983850547007 0.9999997610924947
1200.599585653686 0.9999997648502682
1200.600786253872 0.9999997685687534
1200.6019868552585 0.999999772199368
1200.6031874578455 0.9999997757450171
1200.6043880616332 0.9999997792082141
1200.6055886666215 0.9999997825918333
1200.6067892728104 0.9999997858982591
1200.6079898802 0.999999789130005
1200.60919048879 0.9999997922893137
1200.6103910985807 0.99999979537849
1200.6115917095722 0.999999798399724
1200.6127923217643 0.9999998013550733
1200.6139929351568 0.9999998042465068
1200.61519354975 0.9999998070760283
1200.6163941655439 0.9999998098455299
1200.6175947825384 0.9999998125566438
1200.6187954007335 0.9999998152112599
1200.6199960201293 0.999999817811021
1200.6211966407254 0.999999820357542
1200.6223972625226 0.9999998228523153
1200.62359788552 0.9999998252969631
1200.6247985097182 0.9999998276936254
1200.625999135117 0.9999998300442106
1200.6271997617164 0.999999832348793
1200.6284003895164 0.9999998346086962
1200.6296010185172 0.999999836824673
1200.6308016487183 0.9999998389987031
1200.6320022801203 0.9999998411317566
1200.6332029127227 0.9999998432249477
