Atmospheric Species: CO
Metallicity: 1000
C/O_Ratio: 0.5
Wavelength[nm] Flux_variation
1799.9989592438712 0.9999999911704183
1800.0007592437303 0.9999999846631146
1800.0025592453896 0.9999999737766412
1800.004359248849 0.999999958526479
1800.0061592541078 0.9999999425655846
1800.0079592611673 0.9999999326695284
1800.0097592700265 0.999999934114385
1800.0115592806853 0.9999999460458537
1800.0133592931445 0.9999999622718633
1800.015159307404 0.9999999764927499
1800.0169593234634 0.9999999860742876
1800.0187593413225 0.999999991598945
1800.0205593609817 0.9999999946401262
1800.022359382441 0.999999996395764
1800.0241594057002 0.9999999974966571
1800.0259594307595 0.9999999982339262
1800.0277594576187 0.9999999987476723
1800.0295594862782 0.9999999991141556
1800.0313595167377 0.9999999993793958
1800.0331595489968 0.9999999995730484
1800.034959583057 0.9999999997148336
1800.0367596189162 0.999999999818287
1800.0385596565757 0.9999999998924503
1800.0403596960355 0.9999999999435425
1800.0421597372952 0.9999999999761667
1800.043959780355 0.9999999999939999
1800.0457598252146 1.0
1800.0475598718742 0.9999999999964225
1800.0493599203348 0.9999999999849029
1800.0511599705944 0.9999999999666531
1800.0529600226544 0.9999999999426435
1800.0547600765144 0.999999999913684
1800.0565601321746 0.9999999998804342
1800.0583601896344 0.999999999843398
1800.060160248895 0.999999999802932
1800.061960309955 0.9999999997592472
1800.0637603728153 0.999999999712392
1800.0655604374756 0.9999999996621747
1800.067360503936 0.9999999996079042
1800.0691605721963 0.9999999995476966
1800.070960642257 0.9999999994773506
1800.0727607141173 0.9999999993902886
1800.074560787778 0.9999999992822107
1800.0763608632387 0.999999999161153
1800.0781609404996 0.9999999990526423
1800.0799610195606 0.9999999989855607
1800.0817611004218 0.9999999989669777
1800.0835611830826 0.9999999989753593
1800.085361267544 0.9999999989809293
1800.0871613538052 0.9999999989676153
1800.088961441866 0.9999999989355438
1800.0907615317276 0.9999999988912267
1800.0925616233892 0.9999999988401623
1800.094361716851 0.9999999987852957
1800.0961618121128 0.999999998727961
1800.0979619091743 0.9999999986687659
1800.0997620080361 0.9999999986079905
1800.1015621086983 0.999999998545714
1800.1033622111604 0.9999999984818269
1800.1051623154226 0.9999999984159593
1800.1069624214847 0.9999999983474598
1800.1087625293474 0.9999999982756735
1800.11056263901 0.9999999982006511
1800.1123627504724 0.9999999981236518
1800.1141628637351 0.9999999980462473
1800.115962978798 0.9999999979681958
1800.117763095661 0.9999999978861056
1800.1195632143244 0.9999999977937212
1800.121363334787 0.9999999976812424
1800.1231634570509 0.9999999975307162
1800.1249635811143 0.999999997311079
1800.1267637069775 0.999999996988894
1800.1285638346415 0.9999999965703585
1800.1303639641053 0.9999999961499029
1800.1321640953695 0.9999999958879563
1800.1339642284333 0.999999995892683
1800.1357643632975 0.9999999961200122
1800.137564499962 0.999999996415536
1800.1393646384263 0.9999999966445723
1800.1411647786908 0.9999999967639146
1800.1429649207557 0.9999999967954049
1800.1447650646205 0.9999999967738255
1800.1465652102856 0.9999999967217595
1800.148365357751 0.9999999966490493
1800.1501655070163 0.9999999965582663
1800.1519656580817 0.9999999964480297
1800.1537658109473 0.999999996313559
1800.1555659656133 0.9999999961455469
1800.1573661220793 0.9999999959264123
1800.1591662803455 0.9999999956198775
1800.160966440412 0.9999999951454253
1800.1627666022782 0.9999999943370955
1800.164566765945 0.9999999929388262
1800.1663669314116 0.9999999907677888
1800.1681670986784 0.9999999880841287
1800.1699672677457 0.9999999858179253
1800.1717674386132 0.9999999851010068
1800.1735676112805 0.9999999863185144
1800.1753677857482 0.9999999887387415
1800.177167962016 0.9999999911983639
1800.1789681400837 0.9999999929838094
1800.180768319952 0.9999999940300972
1800.1825685016202 0.9999999945788415
1800.1843686850887 0.9999999948624954
1800.1861688703573 0.9999999950139301
1800.187969057426 0.9999999950949274
1800.1897692462953 0.9999999951340615
1800.1915694369645 0.9999999951461886
1800.1933696294338 0.999999995139993
1800.1951698237037 0.9999999951209226
1800.1969700197737 0.9999999950925127
1800.1987702176436 0.999999995057183
1800.200570417314 0.999999995016601
1800.2023706187845 0.9999999949719544
1800.204170822055 0.9999999949241037
1800.2059710271258 0.9999999948736871
1800.207771233997 0.9999999948211834
1800.2095714426682 0.9999999947669581
1800.2113716531396 0.9999999947112925
1800.2131718654114 0.9999999946544056
1800.2149720794832 0.9999999945964688
1800.2167722953552 0.999999994537617
1800.2185725130275 0.9999999944779565
1800.2203727324998 0.9999999944175705
1800.222172953773 0.999999994356521
1800.223973176846 0.9999999942948622
1800.2257734017192 0.9999999942326275
1800.2275736283925 0.9999999941698419
1800.2293738568665 0.9999999941065192
1800.2311740871405 0.9999999940426643
1800.2329743192142 0.9999999939782719
1800.2347745530888 0.9999999939133281
1800.236574788763 0.9999999938478089
1800.2383750262381 0.9999999937816797
1800.2401752655132 0.9999999937148945
1800.2419755065885 0.9999999936473948
1800.2437757494642 0.9999999935791019
1800.2455759941402 0.9999999935099235
1800.247376240616 0.9999999934397427
1800.249176488892 0.9999999933684138
1800.2509767389686 0.999999993295757
1800.2527769908456 0.9999999932215465
1800.2545772445226 0.9999999931455005
1800.2563775 0.9999999930672611
1800.2581777572773 0.9999999929863725
1800.259978016355 0.9999999929022462
1800.2617782772334 0.9999999928141143
1800.2635785399118 0.9999999927209602
1800.2653788043906 0.9999999926214166
1800.267179070669 0.9999999925136158
1800.2689793387483 0.9999999923949543
1800.2707796086277 0.9999999922617193
1800.2725798803074 0.9999999921085476
1800.2743801537872 0.9999999919273763
1800.2761804290674 0.9999999917056028
1800.277980706148 0.9999999914216616
1800.2797809850285 0.9999999910330388
1800.2815812657095 0.9999999904474777
1800.283381548191 0.9999999894785544
1800.285181832473 0.999999987844846
1800.2869821185548 0.999999985350475
1800.2887824064367 0.999999982278391
1800.2905826961191 0.9999999796334735
1800.2923829876015 0.9999999786693912
1800.2941832808851 0.9999999798900787
1800.2959835759682 0.9999999825855852
1800.297783872852 0.99999998547633
1800.299584171536 0.9999999876802796
1800.3013844720203 0.9999999890338996
1800.3031847743046 0.9999999897751208
1800.3049850783898 0.9999999901776228
1800.3067853842754 0.9999999904120412
1800.3085856919608 0.9999999905598081
1800.3103860014467 0.9999999906549408
1800.3121863127326 0.9999999907118222
1800.3139866258189 0.9999999907387085
1800.3157869407053 0.9999999907418967
1800.3175872573925 0.9999999907253554
1800.3193875758795 0.9999999906895984
1800.3211878961672 0.9999999906328474
1800.322988218255 0.99999999055661
1800.324788542143 0.9999999904731318
1800.326588867832 0.9999999904043511
1800.328389195321 0.9999999903666911
1800.3301895246102 0.999999990356259
1800.3319898557002 0.9999999903533604
1800.3337901885902 0.9999999903403854
1800.3355905232806 0.9999999903119973
1800.3373908597714 0.999999990271527
1800.3391911980623 0.9999999902238864
1800.3409915381535 0.9999999901723128
1800.342791880045 0.9999999901184181
1800.344592223737 0.9999999900629735
1800.3463925692295 0.9999999900063943
1800.3481929165218 0.9999999899489389
1800.3499932656148 0.9999999898907829
1800.3517936165083 0.9999999898320514
1800.353593969202 0.9999999897728384
1800.355394323696 0.999999989713216
1800.3571946799907 0.9999999896532412
1800.3589950380854 0.9999999895929598
1800.3607953979806 0.9999999895324092
1800.362595759676 0.9999999894716236
1800.364396123172 0.9999999894106234
1800.3661964884682 0.9999999893494342
1800.3679968555648 0.9999999892880752
1800.3697972244618 0.999999989226563
1800.371597595159 0.9999999891649114
1800.3733979676567 0.9999999891031336
1800.375198341955 0.9999999890412403
1800.3769987180535 0.9999999889792414
1800.3787990959522 0.9999999889171453
1800.3805994756517 0.9999999888549597
1800.3823998571509 0.9999999887926911
1800.3842002404513 0.9999999887303459
1800.3860006255513 0.9999999886679294
1800.387801012452 0.9999999886054461
1800.3896014011536 0.9999999885429006
1800.391401791655 0.9999999884802965
1800.3932021839566 0.999999988417637
1800.395002578059 0.9999999883549255
1800.3968029739617 0.9999999882921644
1800.3986033716649 0.9999999882293558
1800.4004037711682 0.9999999881665016
1800.4022041724722 0.9999999881036036
1800.4040045755767 0.9999999880406628
1800.4058049804812 0.9999999879776802
1800.4076053871865 0.9999999879146562
1800.4094057956918 0.9999999878515905
1800.4112062059978 0.999999987788483
1800.4130066181044 0.9999999877253323
1800.4148070320111 0.9999999876621365
1800.4166074477182 0.9999999875988923
1800.4184078652256 0.9999999875355956
1800.4202082845338 0.9999999874722401
1800.4220087056424 0.999999987408817
1800.423809128551 0.9999999873453138
1800.42560955326 0.9999999872817129
1800.4274099797701 0.9999999872179883
1800.4292104080803 0.9999999871541011
1800.4310108381903 0.9999999870899924
1800.4328112701016 0.9999999870255648
1800.4346117038128 0.9999999869606486
1800.436412139325 0.9999999868949215
1800.4382125766372 0.9999999868277454
1800.4400130157503 0.9999999867578827
1800.4418134566633 0.9999999866832259
1800.4436138993767 0.9999999866012836
1800.445414343891 0.9999999865116509
1800.4472147902052 0.9999999864198429
1800.4490152383203 0.9999999863375751
1800.4508156882355 0.9999999862752217
1800.4526161399515 0.9999999862324559
1800.4544165934676 0.9999999861983542
1800.4562170487843 0.9999999861609973
1800.4580175059016 0.9999999861151513
1800.4598179648192 0.9999999860617736
1800.4616184255372 0.9999999860037836
1800.463418888056 0.9999999859434064
1800.4652193523748 0.9999999858817973
1800.4670198184942 0.9999999858194756
1800.468820286414 0.99999998575668
1800.4706207561348 0.9999999856935254
1800.4724212276558 0.999999985630059
1800.474221700977 0.9999999855662699
1800.476022176099 0.9999999855020673
1800.4778226530211 0.9999999854371971
1800.4796231317441 0.999999985371115
1800.4814236122677 0.9999999853030054
1800.483224094591 0.999999985232381
1800.4850245787152 0.9999999851602883
1800.4868250646402 0.9999999850898712
1800.4886255523654 0.9999999850246473
1800.4904260418912 0.9999999849655189
1800.4922265332175 0.9999999849099112
1800.4940270263437 0.9999999848541444
1800.4958275212716 0.9999999847961177
1800.497628017999 0.9999999847357444
1800.4994285165271 0.9999999846738152
1800.5012290168559 0.9999999846110461
1800.5030295189854 0.9999999845478347
1800.5048300229146 0.9999999844843336
1800.5066305286448 0.9999999844206081
1800.5084310361756 0.9999999843567463
1800.510231545507 0.9999999842927735
1800.5120320566386 0.9999999842287114
1800.5138325695712 0.9999999841645825
1800.5156330843038 0.9999999841004024
1800.517433600837 0.9999999840361657
1800.519234119171 0.999999983971843
1800.521034639305 0.9999999839073904
1800.52283516124 0.9999999838427795
1800.5246356849752 0.999999983778041
1800.5264362105113 0.9999999837132855
1800.5282367378475 0.9999999836486477
1800.530037266984 0.9999999835841737
1800.5318377979218 0.9999999835197764
1800.5336383306599 0.9999999834553132
1800.5354388651986 0.9999999833906915
1800.5372394015374 0.9999999833258953
1800.539039939677 0.999999983260945
1800.5408404796171 0.99999998319586
1800.5426410213581 0.9999999831306468
1800.544441564899 0.9999999830653012
1800.5462421102409 0.9999999829998134
1800.5480426573831 0.9999999829341695
1800.549843206326 0.9999999828683517
1800.5516437570698 0.9999999828023381
1800.5534443096133 0.9999999827361018
1800.555244863958 0.9999999826696073
1800.5570454201031 0.9999999826028156
1800.5588459780488 0.9999999825356714
1800.5606465377953 0.9999999824681046
1800.5624470993416 0.9999999824000231
1800.564247662689 0.999999982331301
1800.5660482278365 0.999999982261764
1800.567848794785 0.9999999821911593
1800.569649363534 0.999999982119115
1800.5714499340836 0.9999999820450481
1800.5732505064339 0.9999999819679893
1800.5750510805847 0.999999981886116
1800.5768516565358 0.9999999817954867
1800.5786522342883 0.999999981687357
1800.5804528138403 0.9999999815457232
1800.582253395194 0.9999999813531772
1800.5840539783474 0.9999999811141526
1800.5858545633016 0.9999999808807212
1800.5876551500564 0.9999999807353899
1800.5894557386118 0.999999980722221
1800.591256328968 0.9999999808018873
1800.5930569211246 0.9999999808914243
1800.594857515082 0.9999999809345615
1800.59665811084 0.9999999809232686
1800.598458708398 0.9999999808732812
1800.6002593077574 0.9999999807996082
1800.6020599089168 0.9999999807094329
1800.603860511877 0.9999999806039926
1800.6056611166377 0.9999999804808428
1800.607461723199 0.9999999803340389
1800.609262331561 0.9999999801525813
1800.6110629417235 0.999999979916333
1800.6128635536868 0.9999999795866112
1800.6146641674504 0.9999999790843412
1800.6164647830149 0.9999999782534531
1800.6182654003796 0.999999976854923
1800.6200660195454 0.9999999747183776
1800.6218666405118 0.9999999720968195
1800.6236672632788 0.9999999698911071
1800.6254678878463 0.9999999692007362
1800.6272685142142 0.9999999704014957
1800.629069142383 0.999999972779925
1800.630869772352 0.9999999751974278
1800.6326704041226 0.9999999769523887
1800.6344710376932 0.9999999779790367
1800.6362716730644 0.9999999785142991
1800.6380723102366 0.9999999787871982
1800.6398729492091 0.9999999789289331
1800.6416735899818 0.9999999790005528
1800.6434742325562 0.9999999790302713
1800.6452748769307 0.9999999790327135
1800.6470755231057 0.9999999790164229
1800.6488761710814 0.999999978986706
1800.6506768208578 0.9999999789469767
1800.652477472435 0.9999999788995338
1800.6542781258127 0.9999999788459176
1800.656078780991 0.9999999787871776
1800.65787943797 0.9999999787240206
1800.6596800967498 0.9999999786569084
1800.66148075733 0.9999999785861171
1800.6632814197112 0.9999999785117762
1800.6650820838927 0.999999978433889
1800.6668827498752 0.9999999783523454
1800.6686834176583 0.9999999782669243
1800.6704840872417 0.9999999781772876
1800.6722847586261 0.9999999780829678
1800.6740854318116 0.9999999779833478
1800.675886106797 0.9999999778776263
1800.6776867835833 0.9999999777647753
1800.6794874621703 0.9999999776434744
1800.6812881425583 0.9999999775120227
1800.6830888247466 0.9999999773682117
1800.6848895087362 0.9999999772091418
1800.6866901945255 0.9999999770309559
1800.688490882116 0.9999999768284392
1800.6902915715073 0.9999999765943985
1800.6920922626994 0.999999976318713
1800.6938929556916 0.9999999759866905
1800.6956936504848 0.9999999755770769
1800.6974943470789 0.9999999750574844
1800.6992950454735 0.9999999743767785
1800.7010957456691 0.9999999734473951
1800.702896447665 0.9999999721006335
1800.7046971514615 0.9999999699748173
1800.7064978570588 0.9999999663022774
1800.7082985644572 0.9999999597463252
1800.710099273656 0.9999999488804824
1800.7118999846555 0.9999999339097516
1800.7137006974554 0.9999999186477119
1800.7155014120567 0.9999999097287919
1800.7173021284584 0.999999911947163
1800.719102846661 0.9999999240103806
1800.7209035666635 0.9999999397364985
1800.7227042884679 0.9999999532079559
1800.7245050120723 0.9999999621517851
1800.7263057374778 0.9999999672699598
1800.7281064646834 0.9999999700867789
1800.7299071936905 0.9999999717197575
1800.7317079244979 0.9999999727477976
1800.7335086571063 0.9999999734374182
1800.7353093915149 0.9999999739177993
1800.7371101277247 0.9999999742597887
1800.738910865735 0.999999974506229
1800.7407116055463 0.999999974684029
1800.7425123471583 0.9999999748109091
1800.7443130905708 0.999999974897945
1800.7461138357844 0.9999999749515903
1800.7479145827986 0.9999999749762726
1800.7497153316133 0.9999999749787273
1800.7515160822288 0.9999999749709187
1800.7533168346454 0.9999999749656965
1800.7551175888625 0.9999999749675241
1800.7569183448804 0.9999999749699394
1800.758719102699 0.9999999749635181
1800.7605198623187 0.9999999749438581
1800.7623206237388 0.9999999749118633
1800.7641213869597 0.9999999748699439
1800.7659221519814 0.9999999748194994
1800.7677229188037 0.9999999747603147
1800.769523687427 0.9999999746900957
1800.7713244578508 0.9999999746027071
1800.7731252300757 0.9999999744852277
1800.7749260041012 0.9999999743182865
1800.7767267799275 0.9999999740889944
1800.7785275575545 0.9999999738173647
1800.7803283369824 0.9999999735705295
1800.7821291182113 0.9999999734293452
1800.7839299012405 0.9999999734249245
1800.7857306860708 0.9999999735142334
1800.7875314727019 0.9999999736223546
1800.7893322611335 0.9999999736955575
1800.7911330513662 0.9999999737141836
1800.7929338433994 0.9999999736787449
1800.7947346372334 0.99999997360022
1800.7965354328685 0.999999973493943
1800.7983362303044 0.9999999733673841
1800.8001370295412 0.9999999732078514
1800.8019378305783 0.9999999729762512
1800.8037386334167 0.9999999725959879
1800.8055394380553 0.9999999719420648
1800.807340244495 0.9999999708954409
1800.8091410527359 0.9999999695181729
1800.8109418627773 0.9999999682197105
1800.8127426746196 0.9999999676077383
1800.8145434882624 0.999999968009983
1800.8163443037058 0.9999999691652799
1800.8181451209505 0.9999999704731737
1800.8199459399964 0.9999999714824901
1800.8217467608426 0.9999999720913122
1800.82354758349 0.9999999724065065
1800.8253484079382 0.9999999725584852
1800.8271492341864 0.9999999726282777
1800.8289500622361 0.9999999726546631
1800.8307508920861 0.9999999726554094
1800.8325517237377 0.9999999726395804
1800.8343525571897 0.9999999726124431
1800.8361533924426 0.9999999725773147
1800.8379542294967 0.9999999725363602
1800.8397550683515 0.9999999724910639
1800.8415559090063 0.999999972442454
1800.843356751463 0.9999999723912625
1800.84515759572 0.999999972338022
1800.8469584417778 0.9999999722831251
1800.8487592896365 0.9999999722268642
1800.8505601392958 0.9999999721694547
1800.8523609907566 0.9999999721110531
1800.8541618440174 0.9999999720517809
1800.85596269908 0.9999999719917665
1800.857763555943 0.9999999719311692
1800.8595644146067 0.999999971870149
1800.8613652750714 0.9999999718087922
1800.863166137337 0.999999971747083
1800.8649670014036 0.9999999716849636
1800.8667678672707 0.9999999716224058
1800.868568734939 0.9999999715594281
1800.8703696044079 0.9999999714960653
1800.8721704756779 0.9999999714323465
1800.8739713487485 0.9999999713682877
1800.87577222362 0.9999999713038953
1800.877573100293 0.9999999712391698
1800.8793739787664 0.9999999711741061
1800.8811748590406 0.9999999711086947
1800.882975741116 0.9999999710429217
1800.8847766249924 0.9999999709767656
1800.8865775106694 0.9999999709102014
1800.8883783981469 0.9999999708431956
1800.890179287426 0.9999999707757052
1800.8919801785055 0.9999999707076754
1800.893781071386 0.9999999706390351
1800.8955819660673 0.9999999705696905
1800.89738286255 0.9999999704995153
1800.899183760833 0.9999999704283357
1800.9009846609176 0.9999999703559039
1800.9027855628024 0.9999999702818412
1800.9045864664881 0.9999999702055854
1800.906387371975 0.9999999701261337
1800.9081882792627 0.9999999700415128
1800.9099891883516 0.9999999699473308
1800.9117900992412 0.9999999698343589
1800.9135910119317 0.9999999696882643
1800.915391926423 0.9999999694997268
1800.9171928427154 0.9999999692868284
1800.9189937608087 0.9999999691054529
1800.9207946807028 0.9999999690145821
1800.922595602398 0.9999999690204999
1800.924396525894 0.9999999690699557
1800.9261974511908 0.9999999691018028
1800.9279983782883 0.9999999690899259
1800.9297993071875 0.999999969039675
1800.931600237887 0.9999999689649013
1800.9334011703877 0.9999999688750526
1800.9352021046896 0.9999999687741402
1800.9370030407918 0.9999999686630914
1800.938803978695 0.9999999685413201
1800.9406049183995 0.9999999684072775
1800.9424058599047 0.9999999682585167
1800.944206803211 0.9999999680915201
1800.9460077483184 0.9999999679013406
1800.9478086952265 0.9999999676845899
1800.9496096439352 0.9999999674356451
