Atmospheric Species: CO
Metallicity: 10
C/O_Ratio: 1.0
Wavelength[nm] Flux_variation
2299.999916647247 0.9999999893171345
2300.0022166483136 0.9999999900050149
2300.00451665168 0.999999990659009
2300.006816657347 0.9999999912806228
2300.0091166653133 0.9999999918712618
2300.0114166755798 0.999999992432289
2300.0137166881464 0.9999999929649313
2300.016016703013 0.9999999934704027
2300.0183167201794 0.9999999939498233
2300.0206167396464 0.9999999944042515
2300.022916761413 0.999999994834713
2300.0252167854796 0.9999999952421513
2300.0275168118465 0.99999999562747
2300.0298168405134 0.9999999959915394
2300.03211687148 0.9999999963351625
2300.0344169047466 0.9999999966591195
2300.0367169403135 0.9999999969641408
2300.0390169781804 0.9999999972509178
2300.0413170183474 0.999999997520123
2300.043617060814 0.999999997772375
2300.0459171055813 0.9999999980082876
2300.0482171526482 0.999999998228404
2300.0505172020153 0.9999999984332806
2300.0528172536824 0.9999999986234369
2300.0551173076497 0.9999999987993478
2300.057417363917 0.9999999989614897
2300.059717422484 0.9999999991103045
2300.0620174833516 0.9999999992462185
2300.0643175465193 0.9999999993696274
2300.0666176119867 0.9999999994809126
2300.068917679754 0.9999999995804589
2300.0712177498217 0.9999999996685904
2300.0735178221894 0.9999999997456613
2300.075817896857 0.9999999998119709
2300.078117973825 0.9999999998678328
2300.080418053093 0.9999999999135295
2300.0827181346613 0.9999999999493452
2300.0850182185295 0.9999999999755258
2300.0873183046974 0.9999999999923277
2300.0896183931654 1.0
2300.091918483934 0.9999999999987558
2300.0942185770023 0.9999999999888154
2300.096518672371 0.9999999999703885
2300.09881877004 0.9999999999436678
2300.1011188700086 0.9999999999088365
2300.1034189722773 0.9999999998660747
2300.105719076846 0.9999999998155569
2300.108019183715 0.999999999757439
2300.110319292884 0.9999999996918754
2300.1126194043536 0.9999999996190148
2300.114919518123 0.9999999995389853
2300.1172196341927 0.9999999994519254
2300.119519752562 0.9999999993579524
2300.121819873232 0.9999999992571943
2300.124119996202 0.9999999991497479
2300.126420121472 0.9999999990357292
2300.128720249042 0.9999999989152307
2300.131020378912 0.9999999987883422
2300.1333205110823 0.9999999986551613
2300.135620645553 0.9999999985157526
2300.1379207823234 0.9999999983702077
2300.140220921394 0.9999999982185914
2300.142521062765 0.999999998060961
2300.144821206436 0.9999999978973872
2300.1471213524073 0.9999999977279197
2300.1494215006787 0.9999999975526132
2300.15172165125 0.9999999973715111
2300.154021804122 0.9999999971846563
2300.1563219592936 0.999999996992086
2300.158622116766 0.9999999967938238
2300.160922276538 0.9999999965899085
2300.1632224386103 0.9999999963803617
2300.1655226029825 0.9999999961651906
2300.1678227696552 0.9999999959444262
2300.1701229386276 0.9999999957180692
2300.1724231099006 0.9999999954861264
2300.174723283474 0.999999995248603
2300.1770234593473 0.9999999950054942
2300.1793236375206 0.999999994756792
2300.1816238179945 0.9999999945024888
2300.183924000768 0.9999999942425732
2300.186224185842 0.9999999939770147
2300.1885243732163 0.9999999937057993
2300.1908245628906 0.999999993428896
2300.1931247548655 0.9999999931462696
2300.19542494914 0.9999999928578858
2300.197725145715 0.9999999925637025
2300.2000253445904 0.9999999922636776
2300.2023255457657 0.999999991957756
2300.204625749241 0.9999999916458863
2300.2069259550167 0.9999999913280027
2300.209226163093 0.9999999910040488
2300.211526373469 0.9999999906739503
2300.2138265861454 0.9999999903376361
2300.216126801122 0.9999999899950213
2300.218427018399 0.9999999896460243
2300.220727237976 0.9999999892905598
2300.2230274598533 0.999999988928519
2300.2253276840306 0.9999999885598109
2300.2276279105085 0.9999999881843241
2300.2299281392866 0.9999999878019473
2300.2322283703647 0.9999999874125572
2300.234528603743 0.9999999870160293
2300.236828839422 0.999999986612231
2300.239129077401 0.9999999862010164
2300.24142931768 0.9999999857822551
2300.243729560259 0.9999999853557738
2300.2460298051387 0.9999999849214187
2300.2483300523186 0.9999999844790222
2300.2506303017985 0.9999999840284007
2300.252930553579 0.9999999835693708
2300.2552308076597 0.9999999831017362
2300.2575310640404 0.9999999826252868
2300.2598313227218 0.9999999821398177
2300.2621315837027 0.9999999816450946
2300.2644318469847 0.9999999811408855
2300.2667321125664 0.9999999806269415
2300.2690323804486 0.9999999801030108
2300.271332650631 0.9999999795688179
2300.273632923114 0.9999999790240803
2300.275933197897 0.9999999784685073
2300.27823347498 0.9999999779017829
2300.2805337543637 0.9999999773235908
2300.2828340360475 0.9999999767335779
2300.2851343200314 0.9999999761314088
2300.287434606316 0.9999999755166968
2300.2897348949004 0.9999999748890581
2300.2920351857856 0.9999999742480886
2300.294335478971 0.9999999735933531
2300.2966357744563 0.9999999729244098
2300.298936072242 0.9999999722407789
2300.3012363723283 0.9999999715419985
2300.303536674715 0.9999999708275212
2300.3058369794016 0.9999999700968257
2300.3081372863885 0.9999999693493395
2300.310437595676 0.9999999685844712
2300.3127379072635 0.9999999678015934
2300.3150382211516 0.9999999670000544
2300.3173385373398 0.9999999661791702
2300.319638855828 0.9999999653382013
2300.321939176617 0.9999999644764082
2300.3242394997064 0.9999999635929825
2300.326539825096 0.999999962687085
2300.328840152786 0.9999999617578273
2300.3311404827764 0.9999999608042796
2300.3334408150668 0.9999999598254706
2300.3357411496577 0.9999999588203616
2300.3380414865487 0.9999999577878649
2300.3403418257403 0.9999999567268308
2300.3426421672325 0.9999999556360403
2300.344942511025 0.9999999545142322
2300.347242857117 0.9999999533600186
2300.34954320551 0.9999999521720081
2300.351843556203 0.999999950948684
2300.3541439091973 0.9999999496884203
2300.356444264491 0.9999999483895573
2300.3587446220854 0.9999999470502914
2300.36104498198 0.9999999456686909
2300.3633453441753 0.9999999442427973
2300.365645708671 0.9999999427704294
2300.3679460754665 0.999999941249328
2300.370246444563 0.9999999396770631
2300.372546815959 0.9999999380510887
2300.374847189656 0.9999999363686605
2300.377147565653 0.9999999346268702
2300.379447943951 0.9999999328225951
2300.381748324549 0.9999999309525471
2300.3840487074476 0.9999999290131886
2300.3863490926465 0.9999999270007268
2300.388649480146 0.9999999249111251
2300.3909498699454 0.9999999227400773
2300.393250262045 0.9999999204829328
2300.3955506564457 0.9999999181347392
2300.397851053146 0.9999999156901641
2300.4001514521474 0.9999999131434575
2300.402451853449 0.9999999104885142
2300.4047522570504 0.9999999077186589
2300.407052662953 0.9999999048267743
2300.4093530711557 0.9999999018051243
2300.4116534816585 0.9999998986453953
2300.4139538944623 0.9999998953386188
2300.416254309566 0.9999998918750312
2300.4185547269703 0.9999998882440426
2300.420855146675 0.999999884434248
2300.4231555686806 0.999999880433156
2300.4254559929864 0.999999876227227
2300.4277564195922 0.9999998718016517
2300.430056848499 0.9999998671403489
2300.432357279706 0.999999862225646
2300.4346577132137 0.9999998570383105
2300.4369581490214 0.9999998515571797
2300.4392585871296 0.9999998457591166
2300.441559027538 0.9999998396184128
2300.4438594702474 0.999999833106936
2300.446159915257 0.9999998261934707
2300.448460362567 0.9999998188436354
2300.4507608121776 0.9999998110191496
2300.453061264089 0.999999802677606
2300.4553617183 0.999999793771655
2300.4576621748115 0.9999997842483969
2300.459962633624 0.9999997740487009
2300.462263094737 0.9999997630998027
2300.46456355815 0.9999997513384176
2300.4668640238638 0.9999997386747307
2300.469164491878 0.999999725012897
2300.4714649621924 0.9999997102428644
2300.473765434808 0.9999996942418661
2300.4760659097233 0.9999996768610008
2300.4783663869393 0.9999996579435995
2300.480666866456 0.9999996372872179
2300.4829673482727 0.9999996146415566
2300.4852678323905 0.9999995896545547
2300.4875683188084 0.9999995618144595
2300.489868807527 0.9999995305322807
2300.492169298546 0.9999994955137973
2300.4944697918654 0.9999994570794217
2300.496770287485 0.9999994156231958
2300.499070785406 0.9999993705174576
2300.5013712856266 0.9999993199738118
2300.503671788148 0.9999992620330385
2300.50597229297 0.9999991951730898
2300.5082728000925 0.9999991179568677
2300.5105733095156 0.9999990284829068
2300.512873821239 0.9999989240751541
2300.515174335263 0.9999988010377237
2300.5174748515874 0.9999986543245853
2300.5197753702128 0.9999984768146201
2300.5220758911382 0.9999982582169047
2300.5243764143643 0.9999979826685077
2300.526676939891 0.9999976224655993
2300.5289774677176 0.9999971168332595
2300.5312779978453 0.9999963046374823
2300.5335785302736 0.9999948109123855
2300.5358790650025 0.9999920143339261
2300.5381796020315 0.9999870059096442
2300.5404801413615 0.9999785402963917
2300.5427806829916 0.9999679881370183
2300.545081226923 0.9999631393815398
2300.547381773154 0.9999691821839407
2300.5496823216863 0.9999797854204054
2300.5519828725187 0.9999877848656544
2300.5542834256516 0.9999924569302514
2300.556583981085 0.9999950489335002
2300.5588845388197 0.9999964295627339
2300.5611850988544 0.9999971883872869
2300.5634856611896 0.9999976699881487
2300.5657862258254 0.9999980170458254
2300.5680867927617 0.9999982839595387
2300.570387361999 0.9999984963391788
2300.5726879335366 0.9999986691138426
2300.5749885073747 0.9999988121374556
2300.5772890835133 0.999998932184802
2300.5795896619525 0.9999990341575901
2300.5818902426927 0.9999991216407489
2300.584190825733 0.9999991973311655
2300.586491411074 0.9999992633003442
2300.5887919987154 0.999999321168675
2300.5910925886574 0.9999993722226244
2300.5933931809004 0.9999994174973832
2300.5956937754436 0.9999994578356605
2300.5979943722878 0.9999994939301436
2300.6002949714325 0.9999995263544336
2300.6025955728774 0.9999995555879646
2300.6048961766232 0.9999995820340163
2300.6071967826697 0.9999996060326473
2300.6094973910167 0.9999996278743951
2300.6117980016643 0.9999996478071157
2300.6140986146124 0.999999666044124
2300.616399229861 0.9999996827733945
2300.618699847411 0.9999996981473306
2300.6210004672607 0.9999997123070516
2300.6233010894116 0.9999997253758688
2300.625601713863 0.999999737460245
2300.6279023406146 0.9999997486542915
2300.630202969667 0.9999997590463731
2300.6325036010203 0.9999997686986184
2300.6348042346744 0.9999997776825286
2300.6371048706287 0.9999997860565162
2300.639405508884 0.9999997938725456
2300.6417061494394 0.9999998011773209
2300.644006792296 0.9999998080126972
2300.646307437453 0.9999998144163825
2300.6486080849104 0.9999998204223107
2300.650908734669 0.9999998260613007
2300.6532093867277 0.9999998313611428
2300.6555100410874 0.9999998363470983
2300.6578106977477 0.9999998410421033
2300.660111356709 0.9999998454670914
2300.6624120179704 0.9999998496411091
2300.664712681533 0.9999998535815765
2300.667013347396 0.9999998573044322
2300.6693140155594 0.9999998608243184
2300.6716146860235 0.999999864154586
2300.6739153587887 0.9999998673075995
2300.676216033854 0.9999998702946552
2300.6785167112203 0.9999998731262381
2300.680817390887 0.9999998758119829
2300.6831180728545 0.9999998783608076
2300.6854187571225 0.9999998807809586
2300.6877194436915 0.9999998830800116
2300.6900201325616 0.9999998852650931
2300.6923208237317 0.9999998873427579
2300.6946215172034 0.9999998893190895
2300.696922212975 0.9999998911997705
2300.6992229110474 0.9999998929900947
2300.7015236114207 0.9999998946949353
2300.7038243140946 0.9999998963189369
2300.706125019069 0.9999998978663543
2300.7084257263446 0.9999998993412001
2300.7107264359206 0.9999999007472058
2300.713027147797 0.9999999020878726
2300.7153278619744 0.9999999033665143
2300.7176285784526 0.9999999045861753
2300.719929297232 0.9999999057497563
2300.722230018311 0.9999999068599492
2300.7245307416915 0.9999999079193376
2300.7268314673724 0.9999999089303047
2300.729132195354 0.9999999098950815
2300.7314329256365 0.9999999108157959
2300.73373365822 0.9999999116944864
2300.7360343931036 0.9999999125329936
2300.7383351302883 0.9999999133331059
2300.740635869774 0.9999999140965102
2300.7429366115603 0.9999999148247908
2300.745237355647 0.9999999155194481
2300.7475381020345 0.9999999161818975
2300.749838850723 0.999999916813484
2300.7521396017123 0.9999999174154647
2300.7544403550023 0.9999999179890582
2300.756741110593 0.9999999185354027
2300.759041868484 0.9999999190555688
2300.761342628676 0.9999999195505925
2300.7636433911694 0.9999999200214338
2300.765944155963 0.9999999204690345
2300.7682449230574 0.9999999208942532
2300.7705456924527 0.9999999212979361
2300.7728464641486 0.9999999216808793
2300.7751472381456 0.9999999220438208
2300.777448014443 0.9999999223874928
2300.7797487930416 0.9999999227125788
2300.7820495739406 0.9999999230197241
2300.7843503571403 0.9999999233095374
2300.786651142641 0.9999999235826248
2300.788951930442 0.9999999238395513
2300.7912527205444 0.9999999240808337
2300.7935535129477 0.9999999243069976
2300.7958543076516 0.9999999245185378
2300.7981551046564 0.9999999247159009
2300.8004559039614 0.9999999248995429
2300.802756705568 0.9999999250698893
2300.805057509475 0.9999999252273442
2300.8073583156824 0.9999999253722878
2300.809659124191 0.9999999255050912
2300.8119599350007 0.9999999256261205
2300.814260748111 0.9999999257356963
2300.816561563522 0.9999999258341481
2300.818862381234 0.9999999259217859
2300.8211632012467 0.9999999259988954
2300.82346402356 0.9999999260657716
2300.8257648481745 0.9999999261226722
2300.8280656750894 0.9999999261698619
2300.8303665043054 0.9999999262075822
2300.8326673358224 0.9999999262360723
2300.83496816964 0.9999999262555508
2300.8372690057586 0.9999999262662309
2300.8395698441777 0.9999999262683219
2300.841870684898 0.9999999262620279
2300.844171527919 0.9999999262475232
2300.846472373241 0.999999926224987
2300.8487732208637 0.9999999261945968
2300.8510740707875 0.9999999261565143
2300.853374923012 0.99999992611089
2300.855675777537 0.9999999260578769
2300.8579766343632 0.9999999259976157
2300.8602774934902 0.999999925930237
2300.862578354918 0.9999999258558718
2300.8648792186464 0.9999999257746419
2300.867180084676 0.9999999256866607
2300.8694809530066 0.9999999255920352
2300.871781823638 0.9999999254908776
2300.87408269657 0.9999999253832771
2300.8763835718028 0.9999999252693343
2300.878684449337 0.9999999251491325
2300.880985329172 0.9999999250227537
2300.883286211307 0.999999924890282
2300.885587095744 0.9999999247517873
2300.887887982482 0.9999999246073343
2300.8901888715195 0.9999999244569935
2300.892489762859 0.999999924300818
2300.8947906564986 0.9999999241388621
2300.89709155244 0.9999999239711845
2300.899392450682 0.9999999237978273
2300.901693351225 0.9999999236188312
2300.9039942540685 0.9999999234342374
2300.9062951592127 0.9999999232440775
2300.9085960666584 0.9999999230483891
2300.910896976405 0.9999999228471907
2300.9131978884525 0.9999999226405027
2300.915498802801 0.9999999224283539
2300.9177997194497 0.9999999222107557
2300.9201006383996 0.999999921987722
2300.9224015596506 0.9999999217592469
2300.9247024832025 0.9999999215253502
2300.9270034090555 0.9999999212860244
2300.9293043372095 0.9999999210412709
2300.931605267664 0.9999999207910713
2300.9339062004196 0.9999999205354333
2300.9362071354763 0.9999999202743304
2300.938508072834 0.9999999200077411
2300.9408090124925 0.9999999197356536
2300.9431099544518 0.9999999194580352
2300.9454108987125 0.9999999191748569
2300.9477118452737 0.9999999188860867
2300.950012794136 0.999999918591691
2300.9523137452993 0.9999999182916264
2300.9546146987636 0.9999999179858435
2300.9569156545285 0.9999999176742956
2300.959216612595 0.9999999173569265
2300.961517572962 0.9999999170336822
2300.96381853563 0.9999999167045034
2300.966119500599 0.9999999163693181
2300.968420467869 0.9999999160280597
2300.97072143744 0.9999999156806528
2300.9730224093114 0.9999999153270103
2300.975323383484 0.9999999149670576
2300.977624359958 0.9999999146007019
2300.9799253387328 0.9999999142278503
2300.9822263198084 0.9999999138483998
2300.984527303185 0.999999913462241
2300.986828288863 0.9999999130692743
2300.9891292768416 0.9999999126693793
2300.991430267122 0.9999999122624333
2300.993731259702 0.999999911848305
2300.9960322545835 0.9999999114268601
2300.9983332517663 0.9999999109979668
2301.00063425125 0.9999999105614751
2301.0029352530346 0.9999999101172224
2301.0052362571205 0.9999999096650597
2301.007537263507 0.9999999092048104
2301.009838272195 0.9999999087362997
2301.0121392831834 0.9999999082593437
2301.0144402964734 0.9999999077737537
2301.016741312064 0.9999999072793248
2301.0190423299555 0.9999999067758468
2301.0213433501485 0.9999999062631016
2301.023644372642 0.9999999057408615
2301.0259453974368 0.9999999052088787
2301.028246424533 0.9999999046669238
2301.0305474539296 0.9999999041147231
2301.0328484856273 0.9999999035519942
2301.0351495196264 0.9999999029784794
2301.0374505559266 0.9999999023938558
2301.0397515945274 0.9999999017978317
2301.0420526354296 0.9999999011900692
2301.0443536786324 0.9999999005702412
2301.0466547241367 0.999999899938003
2301.048955771942 0.99999989929296
2301.0512568220483 0.9999998986347458
2301.0535578744552 0.9999998979629655
2301.0558589291636 0.9999998972771844
2301.058159986173 0.999999896576954
2301.0604610454834 0.9999998958618496
2301.062762107095 0.9999998951313559
2301.0650631710073 0.999999894384979
2301.067364237221 0.9999998936221991
2301.0696653057357 0.9999998928424687
2301.0719663765517 0.9999998920451865
2301.0742674496682 0.9999998912297814
2301.0765685250863 0.9999998903955949
2301.0788696028053 0.999999889541979
2301.0811706828254 0.9999998886682318
2301.0834717651464 0.9999998877736382
2301.085772849769 0.9999998868574135
2301.088073936692 0.9999998859187551
2301.0903750259167 0.999999884956846
2301.092676117442 0.9999998839707646
2301.0949772112685 0.9999998829596088
2301.097278307396 0.9999998819224034
2301.0995794058254 0.9999998808580981
2301.101880506555 0.999999879765629
2301.104181609586 0.9999998786438563
2301.106482714918 0.9999998774915716
2301.1087838225512 0.9999998763075368
2301.1110849324855 0.9999998750904052
2301.1133860447208 0.9999998738387639
2301.1156871592575 0.9999998725511534
2301.117988276095 0.9999998712260069
2301.1202893952336 0.9999998698616646
2301.1225905166734 0.9999998684563937
2301.1248916404143 0.9999998670083521
2301.1271927664566 0.999999865515577
2301.1294938948 0.9999998639760169
2301.131795025444 0.99999986238747
2301.1340961583896 0.999999860747654
2301.136397293636 0.9999998590540798
2301.138698431184 0.999999857304143
2301.140999571033 0.9999998554950746
2301.1433007131827 0.9999998536239303
2301.145601857634 0.9999998516876103
2301.1479030043865 0.9999998496827094
2301.15020415344 0.9999998476057722
2301.1525053047944 0.9999998454528792
2301.1548064584504 0.9999998432202063
2301.1571076144073 0.9999998409033031
2301.1594087726653 0.9999998384976089
2301.1617099332248 0.9999998359981722
2301.1640110960852 0.9999998333997612
2301.1663122612467 0.9999998306967207
2301.1686134287093 0.999999827882995
2301.1709145984732 0.999999824952085
2301.1732157705383 0.9999998218970664
2301.1755169449048 0.9999998187103708
2301.1778181215723 0.9999998153839945
2301.180119300541 0.9999998119092017
2301.182420481811 0.9999998082765954
2301.1847216653814 0.999999804476092
2301.187022851254 0.9999998004966818
2301.189324039427 0.9999997963265286
2301.1916252299015 0.9999997919527834
2301.1939264226776 0.9999997873614741
2301.1962276177546 0.999999782537432
2301.1985288151327 0.9999997774641525
2301.200830014812 0.9999997721236552
2301.2031312167924 0.9999997664963488
2301.205432421074 0.9999997605607147
2301.207733627657 0.9999997542933041
2301.210034836541 0.9999997476683354
2301.2123360477262 0.9999997406575304
2301.214637261213 0.999999733229785
2301.2169384770004 0.9999997253507056
2301.2192396950895 0.9999997169823929
2301.2215409154796 0.9999997080828494
