Atmospheric Species: CH4
Metallicity: 1
C/O_Ratio: 1.5
Wavelength[nm] Flux_variation
2199.999397930935 0.999732418969822
2200.001597931433 0.9997594537467875
2200.003797934131 0.999783886266919
2200.0059979390285 0.9998106854610609
2200.0081979461265 0.9998464954679556
2200.010397955424 0.9998923706100455
2200.0125979669224 0.9999378521321416
2200.01479798062 0.9999620887600816
2200.016997996518 0.9999591212017469
2200.019198014616 0.9999392929965512
2200.021398034914 0.9999107677973261
2200.023598057412 0.9998748935373226
2200.0257980821098 0.9998369744957238
2200.027998109008 0.9998071452308118
2200.030198138106 0.9997920753313843
2200.032398169404 0.9997942177811397
2200.034598202902 0.9998134543817812
2200.0367982386 0.9998472030945502
2200.0389982764987 0.9998877471407229
2200.041198316597 0.9999190013103555
2200.043398358895 0.9999329004412106
2200.0455984033933 0.9999411060381725
2200.0477984500917 0.9999522630649089
2200.04999849899 0.9999653832145998
2200.052198550088 0.9999729933802816
2200.0543986033867 0.9999670876503735
2200.0565986588854 0.9999496565260344
2200.058798716584 0.9999295551099969
2200.0609987764824 0.9999131144614709
2200.0631988385812 0.9999037603519434
2200.06539890288 0.9999031689776818
2200.0675989693787 0.9999107997651072
2200.0697990380777 0.9999227061201581
2200.071999108977 0.9999281613054641
2200.074199182076 0.9999026992289188
2200.076399257375 0.9998390664457564
2200.078599334874 0.9997707749681822
2200.0807994145734 0.99971568966437
2200.082999496473 0.9996784595657346
2200.0851995805724 0.9996607795652108
2200.087399666872 0.9996632464059261
2200.0895997553716 0.999685678467803
2200.0917998460714 0.9997269610009675
2200.093999938971 0.9997843178853087
2200.096200034071 0.9998513892297737
2200.098400131371 0.9999137831071195
2200.100600230871 0.9999527045830788
2200.1028003325714 0.9999664479691978
2200.1050004364715 0.9999654231252606
2200.107200542572 0.9999577929935873
2200.1094006508724 0.9999493683509418
2200.111600761373 0.9999444370517296
2200.113800874074 0.9999440641339123
2200.116000988975 0.9999443796526073
2200.118201106076 0.9999389374954676
2200.120401225377 0.9999278277982202
2200.1226013468786 0.9999188185460024
2200.1248014705798 0.9999182649763881
2200.1270015964815 0.9999269364602432
2200.129201724583 0.9999395481463216
2200.1314018548846 0.999948003288045
2200.1336019873866 0.9999488748993516
2200.1358021220885 0.9999420395486238
2200.1380022589906 0.9999280965360544
2200.1402023980927 0.9999131148374277
2200.1424025393953 0.9999048913743288
2200.1446026828976 0.9999057344791866
2200.1468028286004 0.9999039788211342
2200.149002976503 0.9998722704384304
2200.151203126606 0.9998200786163126
2200.1534032789095 0.9997748936246705
2200.1556034334126 0.9997456687372992
2200.157803590116 0.9997346462310343
2200.16000374902 0.9997424415928405
2200.162203910123 0.9997686721634963
2200.1644040734272 0.999811404115547
2200.1666042389315 0.9998641884566871
2200.168804406636 0.9999085586475283
2200.17100457654 0.9999262427023367
2200.173204748645 0.9999282574178109
2200.1754049229494 0.9999262341327384
2200.1776050994545 0.9999119930585977
2200.179805278159 0.9998757507012517
2200.182005459065 0.9998332292455366
2200.18420564217 0.999798586521894
2200.186405827476 0.9997684733135433
2200.188606014982 0.9997293464021001
2200.1908062046878 0.9996823086988171
2200.193006396594 0.9996429056315705
2200.1952065907003 0.9996204129141669
2200.197406787007 0.9996177723687599
2200.1996069855136 0.9996355836508263
2200.201807186221 0.9996734473691469
2200.204007389128 0.9997299445156334
2200.2062075942354 0.9998010997143629
2200.208407801543 0.9998694777633349
2200.2106080110507 0.9998967907180251
2200.2128082227587 0.9998946363770354
2200.215008436667 0.9998836167636348
2200.2172086527758 0.9998621083459923
2200.2194088710844 0.999839786920278
2200.221609091593 0.9998290755124916
2200.2238093143023 0.9998348393297554
2200.2260095392116 0.9998568595300386
2200.228209766321 0.9998886816250833
2200.230409995631 0.9999116762471949
2200.232610227141 0.999914258581717
2200.2348104608513 0.9999129292384983
2200.237010696762 0.9999207254693943
2200.2392109348725 0.9999388221909575
2200.2414111751837 0.9999611166416735
2200.243611417695 0.9999783022524422
2200.245811662406 0.9999856904765307
2200.248011909318 0.9999827141569941
2200.25021215843 0.9999671851403596
2200.2524124097417 0.9999397140994231
2200.254612663254 0.9999103050004079
2200.256812918967 0.9998897595542944
2200.2590131768798 0.9998828897565134
2200.2612134369933 0.9998903326564595
2200.2634136993065 0.9999098573604853
2200.26561396382 0.9999353690196902
2200.2678142305344 0.9999565311985045
2200.2700144994487 0.9999633450602897
2200.272214770563 0.9999402410539902
2200.274415043878 0.9998756754499522
2200.2766153193934 0.9998012148944184
2200.2788155971084 0.9997389039385183
2200.281015877024 0.9996939301223046
2200.28321615914 0.9996681529531565
2200.2854164434566 0.9996623420199438
2200.287616729973 0.999676350455854
2200.2898170186895 0.9997083167191244
2200.2920173096068 0.999751315575919
2200.294217602724 0.9997889213462627
2200.296417898042 0.9998121868126344
2200.29861819556 0.9998353223157521
2200.3008184952782 0.9998648273977301
2200.3030187971967 0.9998705134756234
2200.3052191013153 0.9998267100490158
2200.307419407635 0.9997781334370139
2200.309619716154 0.9997450047078577
2200.3118200268736 0.9997303069794923
2200.314020339794 0.9997330423912937
2200.3162206549146 0.9997461010715755
2200.3184209722353 0.9997524523789973
2200.320621291756 0.9997458735858508
2200.3228216134776 0.9997428498997887
2200.3250219373995 0.9997549220411609
2200.3272222635214 0.9997847489813566
2200.3294225918435 0.9998310605105692
2200.3316229223665 0.9998875057154203
2200.3338232550896 0.9999302944878936
2200.3360235900127 0.9999327153639312
2200.3382239271364 0.9999177711103006
2200.34042426646 0.9999088656296929
2200.342624607985 0.9999110595410879
2200.3448249517096 0.999923034621157
2200.3470252976344 0.9999406594444455
2200.34922564576 0.9999567942321352
2200.3514259960857 0.9999624935954841
2200.3536263486117 0.9999552369900006
2200.355826703338 0.9999415657404355
2200.3580270602647 0.9999243769387839
2200.3602274193922 0.9998921140394136
2200.36242778072 0.9998351068926752
2200.3646281442475 0.9997723488824369
2200.3668285099757 0.9997208444819211
2200.3690288779044 0.9996865973275119
2200.371229248033 0.9996717244424045
2200.3734296203625 0.9996768293097497
2200.3756299948923 0.9997012241501076
2200.377830371622 0.9997412071972399
2200.3800307505526 0.9997844064921266
2200.3822311316835 0.9998125162374426
2200.3844315150145 0.9998304192135896
2200.386631900546 0.999852258465875
2200.388832288278 0.9998754784197108
2200.3910326782106 0.9998912652839873
2200.3932330703433 0.9999034483839568
2200.3954334646764 0.9999179257412653
2200.39763386121 0.9999228581026598
2200.399834259944 0.9999007198101633
2200.402034660878 0.9998672028743822
2200.404235064013 0.9998428569363391
2200.4064354693483 0.9998339097515558
2200.4086358768836 0.9998400938461252
2200.4108362866195 0.999857001299713
2200.413036698556 0.9998770703369639
2200.415237112693 0.9998959100272226
2200.4174375290304 0.9999127344274705
2200.419637947568 0.9999093621571487
2200.421838368306 0.9998604077890776
2200.4240387912446 0.9997947971337706
2200.4262392163832 0.9997389271870926
2200.428439643723 0.9996997325274715
2200.430640073262 0.9996794890473852
2200.432840505003 0.9996789771919731
2200.435040938943 0.9996978209596182
2200.4372413750843 0.9997328536682559
2200.4394418134257 0.9997658607304178
2200.4416422539675 0.9997536680235105
2200.4438426967104 0.9997158391519733
2200.4460431416533 0.9996885945057639
2200.4482435887962 0.9996800120706275
2200.45044403814 0.9996912701650313
2200.452644489684 0.9997220023533687
2200.4548449434287 0.9997706676624627
2200.457045399374 0.9998336812295041
2200.4592458575194 0.9999018159324431
2200.4614463178655 0.9999553384081633
2200.463646780412 0.9999834160387181
2200.465847245159 0.9999952736410561
2200.468047712106 1.0
2200.470248181254 0.9999997906552229
2200.4724486526025 0.999989089142949
2200.4746491261512 0.9999592580675861
2200.4768496019005 0.9999132278982249
2200.4790500798504 0.999865625043564
2200.4812505600003 0.9998261450390568
2200.483451042351 0.9997979662196201
2200.4856515269025 0.9997819262530925
2200.487852013654 0.9997786634613779
2200.4900525026064 0.9997892020438752
2200.492252993759 0.9998142861755617
2200.494453487112 0.9998526322878202
2200.4966539826655 0.999897161672856
2200.49885448042 0.9999335814980744
2200.5010549803746 0.9999570073284928
2200.5032554825298 0.9999732463886319
2200.5054559868854 0.999979959671155
2200.5076564934416 0.9999723941324989
2200.5098570021983 0.999954709202342
2200.5120575131555 0.9999324131323064
2200.514258026313 0.999902467135357
2200.5164585416715 0.9998634198062842
2200.5186590592302 0.9998253283242653
2200.5208595789895 0.9997979848575429
2200.5230601009494 0.999785436737985
2200.5252606251097 0.9997863648500619
2200.5274611514706 0.9997877002670961
2200.529661680032 0.9997663907309432
2200.531862210794 0.9997318904321788
2200.5340627437563 0.999706460878718
2200.5362632789193 0.9996958367125784
2200.5384638162827 0.9996935323354548
2200.5406643558467 0.9996840697186488
2200.5428648976113 0.9996640239351298
2200.5450654415763 0.9996471718620196
2200.547265987742 0.9996423577549455
2200.549466536108 0.9996518294831729
2200.5516670866746 0.9996756176014336
2200.553867639442 0.9997109631494561
2200.55606819441 0.9997423988475639
2200.5582687515785 0.9997393121233508
2200.560469310947 0.999715525261953
2200.562669872517 0.9997006074703408
2200.564870436287 0.999703418798009
2200.5670710022578 0.9997254772804421
2200.5692715704286 0.9997660729582241
2200.571472140801 0.9998199811327618
2200.573672713373 0.9998570492298959
2200.575873288146 0.999842171025649
2200.578073865119 0.9998182136203205
2200.5802744442935 0.9998091365790243
2200.5824750256684 0.9998179377818506
2200.5846756092433 0.9998435716978077
2200.586876195019 0.9998813486084585
2200.5890767829956 0.9999199451814386
2200.5912773731725 0.9999476979995583
2200.59347796555 0.999964897078967
2200.5956785601284 0.9999726440831812
2200.597879156907 0.9999700949071242
2200.6000797558863 0.9999611786651778
2200.6022803570663 0.9999494930056629
2200.604480960447 0.9999328424148387
2200.6066815660283 0.9999054781371326
2200.60888217381 0.9998702647084159
2200.611082783792 0.9998392728943586
2200.613283395975 0.9998213396835184
2200.6154840103586 0.9998199543013326
2200.617684626943 0.9998357379441046
2200.619885245728 0.9998672947859709
2200.6220858667134 0.9999099447895391
2200.6242864898995 0.9999521048663413
2200.626487115286 0.9999761034621962
2200.6286877428734 0.9999751465051491
2200.6308883726615 0.9999605649573505
2200.63308900465 0.9999445135600775
2200.6352896388394 0.9999332049555641
2200.637490275229 0.9999291379959887
2200.63969091382 0.9999328583807563
2200.641891554611 0.9999427643163359
2200.6440921976027 0.9999537783858328
2200.646292842795 0.9999595479676322
2200.6484934901882 0.999957570876225
2200.650694139782 0.9999474626395277
2200.6528947915763 0.9999310419110286
2200.655095445571 0.9999153364743942
2200.657296101767 0.9999062043507353
2200.659496760163 0.9999042532702569
2200.66169742076 0.9999078548953974
2200.663898083558 0.9999166917199186
2200.6660987485557 0.9999308650987738
2200.668299415755 0.999947345086862
2200.6705000851543 0.9999575279734783
2200.6727007567547 0.9999454592672835
2200.6749014305556 0.9999066591409934
2200.677102106557 0.9998641588028891
2200.67930278476 0.9998342247565375
2200.6815034651627 0.9998214089237442
2200.6837041477665 0.9998266696735042
2200.685904832571 0.9998494778421019
2200.6881055195763 0.999887441970073
2200.6903062087817 0.9999331874693927
2200.6925069001886 0.999969750490531
2200.6947075937956 0.9999836450493925
2200.6969082896035 0.9999790625279275
2200.699108987612 0.9999645644181624
2200.701309687821 0.999947246741153
2200.7035103902313 0.9999332516990558
2200.7057110948417 0.9999248113032896
2200.707911801653 0.9999164233559402
2200.710112510665 0.9998916267456863
2200.7123132218776 0.9998365641013224
2200.7145139352915 0.9997685259510067
2200.7167146509055 0.9997084411925011
2200.7189153687204 0.9996645940576488
2200.721116088736 0.9996399478737985
2200.7233168109524 0.9996355793486784
2200.72551753537 0.9996516753811672
2200.7277182619873 0.9996877134075881
2200.729918990806 0.9997421386966863
2200.7321197218253 0.9998110089270781
2200.7343204550452 0.9998812957147969
2200.736521190466 0.9999234577643888
2200.7387219280877 0.9999344509671547
2200.7409226679097 0.9999370980954643
2200.7431234099327 0.9999405428452539
2200.7453241541566 0.9999430844706495
2200.747524900581 0.9999410948721632
2200.749725649206 0.9999355366219167
2200.751926400032 0.9999296119753146
2200.754127153059 0.9999232567492212
2200.7563279082865 0.999913296864016
2200.7585286657145 0.9998986161028652
2200.7607294253435 0.999882080670844
2200.7629301871734 0.9998685378987691
2200.765130951204 0.999862842059223
2200.767331717435 0.9998665587303203
2200.769532485867 0.9998742502679931
2200.7717332565 0.9998748518088819
2200.7739340293333 0.9998660333451503
2200.7761348043678 0.999855451278349
2200.7783355816027 0.9998469785726178
2200.7805363610387 0.9998414072861507
2200.782737142675 0.9998410693099172
2200.7849379265126 0.9998493571569457
2200.787138712551 0.9998686618165213
2200.78933950079 0.9998987962225403
2200.79154029123 0.9999335362650816
2200.7937410838704 0.9999577908618551
2200.795941878712 0.9999642150195748
2200.798142675754 0.9999633112464195
2200.800343474997 0.9999637470683922
2200.802544276441 0.999966077812143
2200.804745080086 0.9999691098429633
2200.806945885931 0.9999740881224625
2200.8091466939773 0.999982037748006
2200.811347504224 0.9999897906747682
2200.813548316672 0.9999913858921077
2200.8157491313204 0.9999861581470536
2200.8179499481703 0.9999803369006484
2200.8201507672206 0.9999788595072034
2200.8223515884715 0.9999820233353773
2200.8245524119234 0.9999871621910414
2200.826753237576 0.9999900037447629
2200.8289540654296 0.9999865437213775
2200.8311548954844 0.9999777027456347
2200.833355727739 0.9999691755180076
2200.8355565621955 0.9999649097990809
2200.8377573988523 0.9999635227961531
2200.83995823771 0.9999593542335413
2200.842159078769 0.9999487178646155
2200.844359922028 0.9999349235309429
2200.8465607674884 0.9999234949890022
2200.8487616151497 0.9999177451951449
2200.850962465012 0.9999190867611745
2200.853163317074 0.9999262755945606
2200.855364171338 0.9999323029848267
2200.8575650278026 0.999929136766417
2200.8597658864683 0.9999213476396166
2200.8619667473345 0.9999193479216943
2200.864167610401 0.9999275513251829
2200.8663684756693 0.9999439081276331
2200.8685693431385 0.9999617051463732
2200.870770212808 0.9999743277645108
2200.8729710846787 0.9999806220752526
2200.87517195875 0.9999817991340693
2200.8773728350225 0.9999767798491904
2200.8795737134956 0.9999639991367704
2200.8817745941697 0.9999446241673234
2200.8839754770443 0.9999218309750715
2200.8861763621203 0.999899109758504
2200.888377249397 0.9998802092165672
2200.890578138875 0.9998691796845381
2200.8927790305534 0.9998694401293965
2200.8949799244324 0.9998827810398523
2200.897180820513 0.9999086889380385
2200.899381718794 0.9999429050949594
2200.901582619276 0.9999737538655242
2200.903783521959 0.9999844907700082
2200.905984426843 0.9999756258386562
2200.908185333928 0.9999638788333888
2200.9103862432135 0.9999587518361898
2200.9125871547003 0.9999607314680192
2200.9147880683877 0.9999664569933895
2200.916988984276 0.9999732717710617
2200.9191899023654 0.9999805231518493
2200.921390822655 0.9999858718079191
2200.9235917451465 0.9999850076147969
2200.9257926698388 0.9999773754030735
2200.9279935967315 0.9999661571793388
2200.9301945258253 0.9999536228286044
2200.9323954571205 0.9999396113532191
2200.934596390616 0.9999187916182439
2200.936797326313 0.9998838991946082
2200.9389982642106 0.9998430861126111
2200.941199204309 0.9998111181439076
2200.9434001466084 0.9997950253542774
2200.945601091109 0.9997968307303616
2200.9478020378106 0.999816253404476
2200.9500029867127 0.9998506855490872
2200.952203937816 0.9998927972512651
2200.9544048911207 0.9999277639106571
2200.9566058466257 0.9999421657228974
2200.958806804332 0.9999370671892096
2200.9610077642396 0.9999238068202734
2200.9632087263476 0.999913485764883
2200.9654096906565 0.999911816344035
2200.967610657167 0.9999189816913161
2200.969811625878 0.9999280655323015
2200.9720125967897 0.9999283885175437
2200.974213569903 0.9999211670014936
2200.976414545217 0.9999162153906437
2200.9786155227316 0.999917181470658
2200.980816502448 0.9999217960198026
2200.9830174843646 0.9999239861011616
2200.9852184684823 0.9999168794939074
2200.9874194548015 0.9999039615322959
2200.989620443321 0.999896762766641
2200.991821434042 0.9999022219605079
2200.994022426964 0.9999208460995385
2200.9962234220866 0.9999463995088073
2200.9984244194106 0.9999637251866889
2201.000625418935 0.9999615565164361
2201.002826420661 0.9999480859193883
2201.0050274245878 0.9999353118975808
2201.0072284307157 0.9999277113010088
2201.0094294390447 0.9999220799639349
2201.0116304495746 0.9999083161993003
2201.0138314623055 0.9998810620083065
2201.0160324772373 0.9998500547439451
2201.01823349437 0.9998266275304059
2201.020434513704 0.9998164302182072
2201.022635535239 0.9998214025968504
2201.0248365589746 0.9998399387336837
2201.027037584912 0.9998616283604329
2201.0292386130495 0.9998628607791615
2201.0314396433887 0.9998401250170275
2201.033640675929 0.9998156565292179
2201.03584171067 0.999802418339051
2201.038042747612 0.999804815880962
2201.0402437867556 0.9998240237741857
2201.0424448280996 0.9998590908546304
2201.044645871645 0.9999042513182561
2201.046846917391 0.9999356808601598
2201.0490479653386 0.9999237111299187
2201.051249015487 0.9998899257124041
2201.0534500678364 0.9998602091216369
2201.055651122387 0.9998431212317724
2201.0578521791385 0.99984098074669
2201.0600532380913 0.9998523867728621
2201.062254299245 0.9998694608227702
2201.0644553626 0.9998748826046385
2201.066656428156 0.9998558516857916
2201.0688574959127 0.9998219827692302
2201.0710585658708 0.9997899086491762
2201.07325963803 0.999769242751364
2201.07546071239 0.9997638592139658
2201.077661788951 0.9997748600211556
2201.0798628677135 0.9998010801602443
2201.082063948677 0.9998358858364296
2201.0842650318414 0.9998607634550538
2201.086466117207 0.9998615574729979
2201.088667204773 0.9998466801267059
2201.090868294541 0.9998224010943899
2201.0930693865093 0.9997961322886304
2201.0952704806796 0.9997779630958827
2201.0974715770503 0.9997737225335183
2201.0996726756225 0.9997845328468041
2201.1018737763957 0.9998069805105831
2201.10407487937 0.9998318749712704
2201.1062759845454 0.999849250069385
2201.1084770919215 0.9998603716203239
2201.110678201499 0.9998733670229393
2201.112879313278 0.9998930335733933
2201.1150804272575 0.9999174924962333
2201.1172815434384 0.9999323365567164
2201.1194826618207 0.9999194307104454
2201.1216837824036 0.999890961435712
2201.123884905188 0.9998668856537141
2201.1260860301736 0.9998540969361233
2201.12828715736 0.9998521202696422
2201.1304882867475 0.9998568943820604
2201.132689418336 0.9998633167947404
2201.1348905521263 0.999864948314985
2201.1370916881174 0.9998505244940633
2201.1392928263094 0.9998182652153301
2201.141493966703 0.9997838622622178
2201.1436951092974 0.9997593073991106
2201.145896254093 0.9997483848601796
2201.1480974010897 0.9997506145916794
2201.1502985502875 0.9997624784282578
2201.1524997016863 0.999774681956567
2201.1547008552866 0.9997708342956187
2201.1569020110883 0.999751231840931
2201.159103169091 0.9997349231399977
2201.161304329294 0.9997318757186315
2201.163505491699 0.999741250210081
2201.165706656305 0.9997543059247075
2201.1679078231123 0.9997622893040953
2201.1701089921207 0.9997693860269437
