Atmospheric Species: CO
Metallicity: 100
C/O_Ratio: 1.5
Wavelength[nm] Flux_variation
2399.998438414741 1.0
2400.0008384143794 0.9999999988932131
2400.0032384164174 0.9999999977693417
2400.005638420856 0.9999999966280326
2400.008038427694 0.9999999954689588
2400.0104384369324 0.9999999942916538
2400.0128384485706 0.9999999930958472
2400.015238462609 0.9999999918810513
2400.0176384790475 0.9999999906469407
2400.0200384978857 0.9999999893930184
2400.022438519124 0.9999999881188827
2400.0248385427626 0.9999999868241279
2400.0272385688013 0.9999999855082089
2400.0296385972397 0.9999999841706527
2400.032038628078 0.9999999828110515
2400.0344386613165 0.9999999814287984
2400.0368386969553 0.9999999800234047
2400.039238734994 0.9999999785942871
2400.041638775433 0.9999999771409113
2400.044038818271 0.9999999756626116
2400.04643886351 0.9999999741588464
2400.048838911149 0.9999999726289606
2400.0512389611877 0.9999999710722526
2400.0536390136267 0.999999969488075
2400.0560390684655 0.9999999678756716
2400.0584391257044 0.9999999662343164
2400.060839185344 0.9999999645632175
2400.0632392473826 0.9999999628615511
2400.065639311822 0.9999999611284525
2400.068039378661 0.9999999593631095
2400.0704394479008 0.9999999575645037
2400.0728395195397 0.9999999557317079
2400.075239593579 0.9999999538636846
2400.077639670019 0.9999999519593752
2400.080039748859 0.9999999500176359
2400.0824398300983 0.9999999480372818
2400.084839913738 0.999999946017081
2400.087239999778 0.9999999439557606
2400.089640088218 0.9999999418518559
2400.0920401790577 0.9999999397039689
2400.094440272298 0.9999999375104777
2400.0968403679385 0.9999999352697829
2400.0992404659787 0.9999999329800756
2400.101640566419 0.999999930639573
2400.1040406692596 0.9999999282461745
2400.1064407745002 0.9999999257978203
2400.108840882141 0.9999999232922048
2400.1112409921816 0.9999999207267857
2400.1136411046227 0.9999999180989739
2400.1160412194636 0.999999915405862
2400.118441336705 0.9999999126443259
2400.120841456346 0.999999909810918
2400.123241578388 0.9999999069019462
2400.1256417028294 0.9999999039133546
2400.128041829671 0.9999999008406086
2400.130441958913 0.9999998976787047
2400.1328420905547 0.9999998944219205
2400.135242224597 0.9999998910644873
2400.1376423610386 0.9999998875992977
2400.140042499881 0.9999998840184741
2400.1424426411236 0.9999998803132177
2400.1448427847663 0.9999998764729602
2400.1472429308087 0.999999872486725
2400.1496430792517 0.9999998683408498
2400.152043230095 0.9999998640194634
2400.154443383338 0.9999998595042391
2400.1568435389813 0.9999998547732573
2400.159243697025 0.9999998498004462
2400.1616438574683 0.9999998445542826
2400.1640440203123 0.9999998389963533
2400.1664441855564 0.9999998330793369
2400.1688443532003 0.9999998267441234
2400.1712445232447 0.999999819916112
2400.173644695689 0.9999998124994598
2400.1760448705336 0.9999998043695139
2400.1784450477785 0.9999997953607874
2400.1808452274236 0.9999997852492869
2400.1832454094692 0.9999997737247782
2400.1856455939146 0.9999997603460795
2400.18804578076 0.9999997444629478
2400.190445970006 0.9999997250869576
2400.1928461616517 0.9999997006202255
2400.1952463556977 0.999999668319413
2400.1976465521443 0.9999996228980081
2400.200046750991 0.9999995524300402
2400.202446952238 0.9999994255693903
2400.204847155885 0.9999991610337058
2400.2072473619323 0.9999986044246139
2400.2096475703793 0.9999976260827225
2400.212047781227 0.9999963606769924
2400.2144479944745 0.9999953324709703
2400.2168482101224 0.9999951752321009
2400.219248428171 0.9999959997776291
2400.221648648619 0.9999972590153849
2400.224048871468 0.9999983412185723
2400.226449096717 0.9999989972029093
2400.228849324366 0.9999993094600621
2400.2312495544156 0.9999994467614303
2400.233649786865 0.9999995118757558
2400.2360500217146 0.9999995461421295
2400.238450258965 0.9999995648264627
2400.240850498615 0.9999995743093603
2400.2432507406656 0.9999995777315879
2400.2456509851163 0.9999995768173011
2400.2480512319676 0.9999995725685294
2400.2504514812185 0.9999995655677087
2400.2528517328706 0.9999995561331574
2400.2552519869223 0.9999995443923196
2400.257652243374 0.9999995303171098
2400.2600525022262 0.999999513728901
2400.262452763479 0.9999994942783861
2400.2648530271317 0.9999994713958227
2400.2672532931847 0.9999994441932037
2400.2696535616383 0.9999994112949363
2400.272053832492 0.9999993704959572
2400.2744541057455 0.9999993181142407
2400.2768543813995 0.9999992474756798
2400.279254659454 0.9999991450448884
2400.281654939909 0.9999989796298405
2400.284055222764 0.9999986763084493
2400.2864555080196 0.9999980841801294
2400.288855795675 0.9999970200182431
2400.2912560857308 0.9999954939049266
2400.293656378187 0.9999940191679512
2400.2960566730435 0.9999935289069443
2400.2984569703003 0.9999944174251831
2400.3008572699573 0.9999959881071755
2400.3032575720144 0.9999973673153361
2400.3056578764727 0.9999982212981322
2400.30805818333 0.9999986436582305
2400.3104584925886 0.9999988303348555
2400.3128588042473 0.9999989045973778
2400.315259118306 0.9999989102301885
2400.317659434765 0.999998836357427
2400.3200597536247 0.9999986326827855
2400.3224600748845 0.999998269821237
2400.324860398545 0.999997832157459
2400.3272607246054 0.9999974989364401
2400.329661053066 0.9999974184097054
2400.332061383927 0.9999976191765085
2400.3344617171883 0.9999979950763592
2400.3368620528504 0.9999983615782848
2400.3392623909126 0.9999985857357188
2400.341662731375 0.9999986672882046
2400.344063074238 0.9999986700768295
2400.346463419501 0.999998639777757
2400.3488637671644 0.9999985947231371
2400.3512641172283 0.9999985407415329
2400.3536644696924 0.9999984796469998
2400.356064824557 0.9999984119674435
2400.358465181822 0.999998337703066
2400.3608655414873 0.9999982565632969
2400.363265903553 0.9999981680556118
2400.365666268019 0.9999980715144865
2400.3680666348855 0.9999979661094661
2400.370467004152 0.9999978508328132
2400.372867375819 0.9999977244748178
2400.375267749887 0.9999975855764612
2400.377668126355 0.9999974323627903
2400.380068505223 0.9999972626266163
2400.3824688864916 0.9999970735645707
2400.3848692701604 0.9999968615357704
2400.38726965623 0.9999966217195452
2400.3896700446994 0.9999963477909566
2400.3920704355696 0.9999960312534877
2400.394470828841 0.9999956606615583
2400.3968712245114 0.9999952189412663
2400.3992716225825 0.9999946748681543
2400.4016720230543 0.9999939556870723
2400.404072425926 0.9999928867971762
2400.4064728311987 0.9999911727964075
2400.408873238872 0.9999884146329018
2400.411273648945 0.9999843491629552
2400.4136740614185 0.9999789183412308
2400.416074476293 0.9999738676648898
2400.4184748935677 0.9999729810030789
2400.4208753132425 0.9999771192007897
2400.423275735318 0.9999827578180703
2400.425676159794 0.9999872874112978
2400.42807658667 0.9999904454000559
2400.430477015947 0.9999924433113956
2400.432877447624 0.9999936773079044
2400.435277881702 0.9999944770477347
2400.43767831818 0.9999950622790506
2400.440078757058 0.9999955302001414
2400.442479198337 0.9999959200001277
2400.444879642016 0.9999962513903783
2400.447280088096 0.9999965369919234
2400.449680536576 0.9999967860775162
2400.4520809874566 0.9999970055425619
2400.4544814407377 0.9999972006618622
2400.4568818964194 0.9999973754107943
2400.4592823545017 0.9999975328415152
2400.461682814984 0.9999976753519192
2400.4640832778673 0.9999978048682623
2400.4664837431505 0.9999979229738443
2400.4688842108344 0.9999980309956952
2400.471284680919 0.99999813005815
2400.4736851534035 0.99999822112176
2400.476085628289 0.9999983050041995
2400.4784861055746 0.9999983823860683
2400.480886585261 0.9999984537800201
2400.4832870673476 0.9999985193558187
2400.485687551835 0.9999985783749079
2400.4880880387227 0.9999986282135256
2400.490488528011 0.999998665187136
2400.4928890196993 0.9999986916969686
2400.495289513789 0.9999987230351326
2400.4976900102783 0.9999987737032509
2400.5000905091683 0.999998837089184
2400.5024910104594 0.9999988959795977
2400.5048915141506 0.9999989433775932
2400.5072920202424 0.9999989819880177
2400.5096925287344 0.9999990156752296
2400.512093039627 0.9999990464325796
2400.5144935529206 0.9999990750404468
2400.516894068614 0.9999991018252642
2400.519294586708 0.9999991269707394
2400.521695107203 0.9999991506087087
2400.524095630098 0.9999991728469072
2400.526496155394 0.9999991937781851
2400.5288966830904 0.9999992134845097
2400.531297213187 0.9999992320396115
2400.5336977456845 0.9999992495102886
2400.5360982805823 0.999999265957117
2400.5384988178807 0.9999992814350379
2400.5408993575797 0.999999295994865
2400.54329989968 0.9999993096826003
2400.5457004441796 0.9999993225400475
2400.54810099108 0.9999993346057048
2400.5505015403814 0.9999993459141024
2400.552902092083 0.9999993564966583
2400.5553026461853 0.9999993661633692
2400.557703202688 0.9999993741298783
2400.560103761591 0.9999993814618653
2400.5625043228956 0.9999993881775644
2400.5649048866 0.9999993942924036
2400.5673054527047 0.9999993998184156
2400.56970602121 0.9999994047638692
2400.5721065921166 0.9999994091341171
2400.5745071654233 0.999999412929201
2400.576907741131 0.9999994161449306
2400.579308319239 0.9999994187712682
2400.5817088997474 0.9999994207916814
2400.5841094826565 0.9999994221816747
2400.586510067966 0.9999994229074108
2400.5889106556765 0.9999994229220776
2400.5913112457874 0.9999994221646923
2400.5937118382985 0.999999420553731
2400.5961124332107 0.9999994179821253
2400.5985130305235 0.9999994143080952
2400.6009136302364 0.9999994093431105
2400.6033142323504 0.9999994028335851
2400.605714836865 0.9999993944335218
2400.6081154437798 0.999999383663261
2400.6105160530956 0.999999369842118
2400.6129166648116 0.9999993519743154
2400.6153172789286 0.9999993285680537
2400.617717895446 0.9999992972589897
2400.620118514364 0.99999925407455
2400.622519135683 0.999999191583506
2400.6249197594025 0.9999990935009769
2400.627320385522 0.9999989184317364
2400.629721014043 0.9999985678272386
2400.632121644964 0.9999978897255816
2400.634522278286 0.9999968237741701
2400.6369229140087 0.9999955720200694
2400.6393235521314 0.9999945636303325
2400.641724192655 0.9999942310423864
2400.6441248355795 0.9999947305776505
2400.646525480905 0.9999958288053575
2400.6489261286306 0.9999970687696901
2400.651326778757 0.9999980556336896
2400.6537274312836 0.999998648033333
2400.6561280862115 0.9999989446818845
2400.6585287435396 0.9999990930486656
2400.6609294032687 0.9999991769603559
2400.6633300653984 0.9999992301593058
2400.665730729929 0.9999992662051217
2400.6681313968597 0.9999992915294769
2400.6705320661913 0.999999309671922
2400.6729327379235 0.9999993227865758
2400.6753334120563 0.9999993322583549
2400.67773408859 0.9999993388926475
2400.680134767524 0.9999993433204197
2400.682535448859 0.9999993459897072
2400.684936132595 0.9999993472248268
2400.6873368187316 0.9999993472643366
2400.6897375072685 0.9999993462865511
2400.6921381982065 0.9999993444247025
2400.694538891545 0.9999993417800317
2400.6969395872843 0.9999993384265339
2400.699340285424 0.99999933442273
2400.7017409859645 0.9999993298076064
2400.704141688906 0.9999993246084291
2400.706542394248 0.9999993188409715
2400.708943101991 0.999999312510931
2400.711343812134 0.9999993056148234
2400.713744524678 0.9999992981397441
2400.716145239623 0.9999992900632764
2400.7185459569682 0.9999992813520634
2400.7209466767144 0.9999992719617066
2400.7233473988613 0.9999992618338086
2400.7257481234087 0.9999992508940017
2400.7281488503572 0.9999992390482826
2400.7305495797063 0.999999226176343
2400.7329503114565 0.9999992121270131
2400.735351045607 0.9999991967069539
2400.7377517821583 0.9999991796681555
2400.7401525211103 0.999999160687606
2400.742553262463 0.9999991393403608
2400.7449540062166 0.9999991150578603
2400.747354752371 0.9999990870644149
2400.749755500926 0.9999990542790332
2400.752156251882 0.9999990151417464
2400.754557005238 0.9999989673673497
2400.7569577609956 0.9999989073889433
2400.7593585191535 0.9999988293267257
2400.7617592797124 0.999998722438682
2400.764160042672 0.9999985642737744
2400.7665608080324 0.9999983033811252
2400.7689615757936 0.9999978381228907
2400.7713623459554 0.9999970541314214
2400.7737631185178 0.999995965060928
2400.776163893481 0.9999948082322953
2400.7785646708453 0.9999939374397281
2400.7809654506104 0.9999936464985351
2400.783366232776 0.99999404117057
2400.7857670173426 0.9999949761824233
2400.78816780431 0.9999961367045992
2400.790568593678 0.9999971708177713
2400.792969385447 0.9999978754182223
2400.795370179617 0.9999982716609593
2400.797770976187 0.9999984829556541
2400.8001717751586 0.9999986035320845
2400.8025725765306 0.9999986782608343
2400.8049733803036 0.9999987267179932
2400.8073741864773 0.9999987584767048
2400.8097749950516 0.9999987788722533
2400.8121758060265 0.9999987911722094
2400.8145766194034 0.999998797480277
2400.81697743518 0.9999987992309668
2400.819378253358 0.9999987974175318
2400.821779073937 0.9999987927493938
2400.8241798969157 0.9999987857442819
2400.826580722296 0.9999987767857351
2400.828981550077 0.9999987661624604
2400.831382380259 0.9999987540931946
2400.8337832128414 0.9999987407464308
2400.8361840478256 0.9999987262516241
2400.8385848852095 0.9999987107087425
2400.8409857249944 0.9999986941952744
2400.843386567181 0.9999986767707395
2400.8457874117676 0.9999986584796461
2400.8481882587557 0.9999986393554112
2400.850589108144 0.9999986194215051
2400.8529899599334 0.99999859869316
2400.855390814124 0.9999985771777583
2400.857791670715 0.9999985548762125
2400.860192529707 0.9999985317831215
2400.8625933911 0.9999985078865845
2400.8649942548936 0.9999984831677458
2400.867395121088 0.9999984575994498
2400.8697959896836 0.9999984311426519
2400.87219686068 0.9999984037466575
2400.8745977340773 0.9999983753402827
2400.876998609875 0.9999983458214197
2400.8793994880743 0.9999983150403443
2400.8818003686742 0.9999982827592732
2400.8842012516748 0.9999982485732064
2400.8866021370764 0.9999982116912361
2400.889003024879 0.9999981702346885
2400.8914039150823 0.999998118716444
2400.8938048076866 0.9999980405588087
2400.8962057026915 0.9999978960068372
2400.8986066000975 0.9999976329177962
2400.9010074999046 0.9999972655079943
2400.9034084021123 0.9999969467250972
2400.9058093067215 0.9999968677188457
2400.908210213731 0.9999970608983945
2400.9106111231413 0.9999973612374237
2400.9130120349528 0.9999975818610757
2400.9154129491653 0.9999976722315053
2400.917813865779 0.9999976800055131
2400.9202147847927 0.9999976531249534
2400.9226157062076 0.9999976132815734
2400.925016630024 0.9999975676037218
2400.927417556241 0.9999975183195032
2400.929818484859 0.9999974662318124
2400.932219415878 0.9999974116740815
2400.934620349298 0.9999973547858027
2400.9370212851186 0.9999972956093226
2400.93942222334 0.9999972341297974
2400.9418231639625 0.9999971702968954
2400.944224106986 0.9999971040339583
2400.9466250524106 0.9999970352449514
2400.949026000236 0.999996963815448
2400.9514269504625 0.9999968896154292
2400.95382790309 0.9999968124972647
2400.956228858118 0.9999967322998911
2400.9586298155473 0.9999966488414925
2400.9610307753774 0.999996561923788
2400.963431737609 0.999996471329687
2400.9658327022407 0.9999963767873972
2400.968233669274 0.9999962780916137
2400.9706346387084 0.9999961749285381
2400.9730356105433 0.9999960669849814
2400.975436584779 0.999995953917834
2400.9778375614164 0.999995835349546
2400.980238540454 0.9999957108084
2400.9826395218934 0.9999955799820036
2400.985040505733 0.999995438851144
2400.987441491974 0.9999952885617918
2400.989842480616 0.999995130884209
2400.9922434716586 0.9999949650506479
2400.9946444651027 0.999994790195172
2400.9970454609474 0.9999946053330697
2400.999446459193 0.999994409310492
2401.00184745984 0.9999942007672286
2401.004248462888 0.9999939780728261
2401.006649468337 0.9999937392887726
2401.009050476187 0.9999934821211133
2401.0114514864376 0.9999932038877378
2401.0138524990894 0.9999929014949487
2401.0162535141426 0.9999925713871709
2401.0186545315964 0.9999922094347639
2401.0210555514514 0.9999918105672778
2401.0234565737073 0.9999913680119141
2401.025857598364 0.9999908719324669
2401.028258625422 0.9999903067882663
2401.030659654881 0.9999896493261845
2401.0330606867415 0.9999888639711827
2401.0354617210023 0.999987889598939
2401.0378627576647 0.9999865602611173
2401.0402637967277 0.9999841785688953
2401.042664838192 0.9999778058475198
2401.0450658820573 0.999955128151234
2401.0474669283235 0.999892835528444
2401.0498679769908 0.9998131094853964
2401.052269028059 0.9997813757435678
2401.054670081529 0.999819121004245
2401.0570711373994 0.9999001569949763
2401.059472195671 0.9999585189858509
2401.0618732563435 0.9999787474485998
2401.064274319417 0.9999844839759552
2401.0666753848914 0.9999867060326717
2401.0690764527676 0.9999879887181597
2401.0714775230445 0.9999889420233565
2401.0738785957224 0.9999897139422353
2401.076279670802 0.9999903618799033
2401.0786807482814 0.9999909200420988
2401.081081828163 0.9999914107479986
2401.083482910445 0.9999918487472732
2401.0858839951284 0.999992243533187
2401.088285082213 0.9999926016942329
2401.0906861716985 0.9999929281903681
2401.0930872635854 0.9999932270942987
2401.095488357873 0.9999935019113919
2401.097889454562 0.9999937556881857
2401.100290553651 0.9999939910598781
2401.1026916551423 0.9999942102669591
2401.1050927590345 0.9999944151980142
2401.107493865328 0.999994607422893
2401.1098949740217 0.9999947882500752
2401.112296085117 0.9999949587704818
2401.114697198614 0.9999951199027369
2401.1170983145116 0.9999952724354746
2401.1194994328107 0.9999954170475875
2401.12190055351 0.9999955543431657
2401.1243016766116 0.9999956848596231
2401.1267028021134 0.9999958091460635
2401.1291039300168 0.9999959275150305
2401.131505060321 0.9999960404351218
2401.1339061930266 0.99999614828352
2401.1363073281336 0.9999962514000744
2401.138708465641 0.999996350126353
2401.14110960555 0.9999964446918879
2401.14351074786 0.9999965353884587
2401.1459118925713 0.9999966224589808
2401.1483130396837 0.9999967061241025
2401.150714189197 0.9999967865853842
2401.153115341112 0.9999968640288225
2401.1555164954275 0.9999969386238228
2401.1579176521445 0.9999970105264346
2401.160318811263 0.9999970798807618
2401.1627199727823 0.999997146817951
2401.1651211367025 0.9999972114612442
2401.1675223030243 0.9999972739233696
2401.169923471747 0.9999973343098093
2401.172324642871 0.9999973927190942
2401.174725816396 0.9999974492422705
2401.1771269923224 0.9999974996037252
2401.17952817065 0.9999975484490397
2401.1819293513786 0.9999975962523744
2401.1843305345087 0.9999976429797975
2401.1867317200395 0.9999976886165719
2401.1891329079717 0.9999977331624879
2401.1915340983055 0.9999977766270051
2401.19393529104 0.9999978190287817
2401.196336486176 0.9999978603915447
2401.198737683713 0.9999979007448032
2401.201138883651 0.9999979401231759
2401.2035400859904 0.9999979785673289
2401.205941290731 0.9999980161245763
2401.2083424978728 0.9999980528543918
2401.210743707416 0.9999980888360024
2401.21314491936 0.9999981240825461
2401.215546133705 0.9999981584006478
2401.217947350452 0.9999981918240006
2401.2203485695995 0.9999982243855704
2401.2227497911485 0.9999982561154742
2401.225151015099 0.9999982870437918
2401.2275522414507 0.9999983171979795
2401.2299534702033 0.9999983466052762
2401.2323547013575 0.9999983752908593
2401.2347559349128 0.9999984032795303
2401.237157170869 0.9999984305940962
2401.239558409227 0.9999984572573359
2401.241959649986 0.9999984832901482
2401.244360893146 0.9999985087128848
2401.2467621387077 0.9999985335452233
2401.2491633866703 0.9999985578058775
2401.251564637034 0.9999985788366637
2401.253965889799 0.9999986001646423
2401.2563671449657 0.9999986216422597
2401.2587684025334 0.9999986429885273
2401.261169662502 0.9999986640785699
2401.263570924872 0.9999986848525675
2401.2659721896434 0.9999987052790839
2401.2683734568163 0.9999987253444205
2401.2707747263903 0.9999987450422498
2401.273175998366 0.9999987643723881
2401.2755772727423 0.9999987833374699
