Atmospheric Species: CO
Metallicity: 1000
C/O_Ratio: 0.5
Wavelength[nm] Flux_variation
899.9996421494948 0.9999999736801191
900.0005421495869 0.9999999736801215
900.001442150579 0.9999999736801242
900.0023421524711 0.9999999736801267
900.0032421552633 0.9999999736801293
900.0041421589555 0.9999999736801318
900.0050421635475 0.9999999736801344
900.0059421690396 0.9999999736801369
900.0068421754318 0.9999999736801395
900.0077421827239 0.999999973680142
900.0086421909161 0.9999999736801446
900.0095422000082 0.9999999736800981
900.0104422100004 0.9999999736800194
900.0113422208927 0.9999999736799404
900.0122422326849 0.9999999736798616
900.013142245377 0.9999999736797828
900.0140422589691 0.9999999736797038
900.0149422734613 0.9999999736796251
900.0158422888536 0.9999999736795463
900.0167423051458 0.9999999736794672
900.017642322338 0.9999999736793885
900.0185423404303 0.9999999736793097
900.0194423594227 0.9999999736792308
900.020342379315 0.9999999736791519
900.0212424001073 0.999999973679073
900.0221424217997 0.9999999736789942
900.0230424443921 0.9999999736789154
900.0239424678846 0.9999999736788364
900.024842492277 0.9999999736787576
900.0257425175695 0.9999999736786788
900.0266425437621 0.9999999736785999
900.0275425708543 0.999999973678521
900.028442598847 0.9999999736784421
900.0293426277395 0.9999999736783634
900.0302426575322 0.9999999736782844
900.0311426882248 0.9999999736782055
900.0320427198175 0.9999999736781267
900.0329427523099 0.9999999736780477
900.0338427857027 0.9999999736779688
900.0347428199954 0.99999997367789
900.0356428551884 0.9999999736778111
900.0365428912813 0.9999999736777323
900.0374429282743 0.9999999736776533
900.0383429661671 0.9999999736775744
900.0392430049601 0.9999999736774956
900.0401430446531 0.9999999736774167
900.0410430852461 0.9999999736773377
900.041943126739 0.9999999736772589
900.0428431691322 0.99999997367718
900.0437432124255 0.9999999736771011
900.0446432566187 0.9999999736770222
900.0455433017121 0.9999999736769433
900.0464433477051 0.9999999736768646
900.0473433945986 0.999999973676786
900.0482434423918 0.9999999736767073
900.0491434910853 0.9999999736766289
900.0500435406788 0.9999999736765502
900.0509435911723 0.9999999736764718
900.051843642566 0.9999999736763932
900.0527436948595 0.9999999736763145
900.0536437480532 0.999999973676236
900.0545438021469 0.9999999736761574
900.0554438571407 0.9999999736760787
900.0563439130347 0.9999999736760002
900.0572439698285 0.9999999736759216
900.0581440275225 0.999999973675843
900.0590440861165 0.9999999736757644
900.0599441456106 0.9999999736756859
900.0608442060047 0.9999999736756073
900.0617442672989 0.9999999736755287
900.0626443294932 0.99999997367545
900.0635443925875 0.9999999736753716
900.064444456582 0.9999999736752929
900.0653445214763 0.9999999736752143
900.0662445872707 0.9999999736751358
900.0671446539653 0.9999999736750571
900.06804472156 0.9999999736749786
900.0689447900545 0.9999999736749
900.0698448594495 0.9999999736748213
900.0707449297444 0.9999999736747428
900.0716450009393 0.9999999736746642
900.0725450730342 0.9999999736745856
900.0734451460294 0.999999973674507
900.0743452199245 0.9999999736744284
900.0752452947198 0.9999999736743498
900.0761453704149 0.9999999736742712
900.0770454470104 0.9999999736741925
900.0779455245058 0.999999973674114
900.0788456029013 0.9999999736740353
900.0797456821969 0.9999999736739568
900.0806457623926 0.999999973673878
900.0815458434884 0.9999999736737994
900.0824459254843 0.999999973673721
900.0833460083802 0.9999999736736422
900.0842460921762 0.9999999736735635
900.0851461768722 0.9999999736734849
900.0860462624685 0.9999999736734063
900.0869463489646 0.9999999736733277
900.087846436361 0.9999999736732491
900.0887465246574 0.9999999736731704
900.0896466138541 0.9999999736730919
900.0905467039507 0.9999999736730132
900.0914467949473 0.9999999736729346
900.0923468868441 0.999999973672856
900.093246979641 0.9999999736727773
900.0941470733379 0.9999999736726988
900.095047167935 0.9999999736726201
900.0959472634321 0.9999999736725413
900.0968473598296 0.9999999736724627
900.0977474571268 0.9999999736723841
900.0986475553243 0.9999999736723054
900.0995476544218 0.9999999736722268
900.1004477544196 0.9999999736721481
900.1013478553174 0.9999999736720695
900.1022479571152 0.9999999736719909
900.1031480598132 0.9999999736719121
900.1040481634111 0.9999999736718336
900.1049482679095 0.9999999736717549
900.1058483733077 0.9999999736716763
900.1067484796062 0.9999999736715975
900.1076485868047 0.9999999736715188
900.1085486949032 0.9999999736714403
900.1094488039018 0.9999999736713616
900.1103489138007 0.9999999736712829
900.1112490245996 0.9999999736712043
900.1121491362986 0.9999999736711256
900.1130492488979 0.9999999736710469
900.1139493623971 0.9999999736709684
900.1148494767965 0.9999999736708896
900.115749592096 0.999999973670811
900.1166497082957 0.9999999736707323
900.1175498253954 0.9999999736706535
900.1184499433953 0.999999973670575
900.1193500622951 0.9999999736704962
900.1202501820952 0.9999999736704176
900.1211503027954 0.9999999736703389
900.1220504243958 0.9999999736702602
900.1229505468962 0.9999999736701816
900.1238506702967 0.9999999736701028
900.1247507945975 0.9999999736700241
900.1256509197983 0.9999999736699455
900.1265510458993 0.9999999736698668
900.1274511729004 0.999999973669788
900.1283513008017 0.9999999736697094
900.129251429603 0.9999999736696307
900.1301515593042 0.9999999736695521
900.1310516899059 0.9999999736694734
900.1319518214076 0.9999999736693946
900.1328519538096 0.9999999736693159
900.1337520871116 0.9999999736692373
900.1346522213137 0.9999999736691585
900.1355523564158 0.9999999736690798
900.1364524924182 0.9999999736690012
900.1373526293208 0.9999999736689225
900.1382527671235 0.9999999736688437
900.1391529058263 0.999999973668765
900.1400530454292 0.9999999736686863
900.1409531859323 0.9999999736686076
900.1418533273356 0.9999999736685289
900.1427534696388 0.9999999736684503
900.1436536128424 0.9999999736683715
900.144553756946 0.9999999736682929
900.1454539019498 0.9999999736682141
900.1463540478538 0.9999999736681353
900.1472541946582 0.9999999736680567
900.1481543423622 0.9999999736679779
900.1490544909666 0.9999999736678991
900.149954640471 0.9999999736678206
900.1508547908757 0.9999999736677417
900.1517549421804 0.9999999736676629
900.1526550943853 0.9999999736675843
900.1535552474907 0.9999999736675055
900.1544554014959 0.9999999736674269
900.1553555564013 0.999999973667348
900.156255712207 0.9999999736672693
900.1571558689127 0.9999999736671906
900.1580560265187 0.9999999736671119
900.1589561850247 0.9999999736670331
900.159856344431 0.9999999736669544
900.1607565047374 0.9999999736668757
900.161656665944 0.9999999736667969
900.1625568280508 0.9999999736667182
900.1634569910575 0.9999999736666394
900.1643571549646 0.9999999736665607
900.1652573197717 0.999999973666482
900.166157485479 0.9999999736664033
900.1670576520864 0.9999999736663245
900.1679578195943 0.9999999736662457
900.1688579880022 0.9999999736661671
900.1697581573101 0.9999999736660883
900.1706583275183 0.9999999736660093
900.1715584986268 0.9999999736659785
900.1724586706354 0.9999999736659813
900.1733588435441 0.999999973665984
900.1742590173529 0.9999999736659869
900.1751591920622 0.9999999736659897
900.1760593676713 0.9999999736659925
900.1769595441807 0.9999999736659954
900.1778597215903 0.9999999736659981
900.1787598999 0.999999973666001
900.17966007911 0.9999999736660038
900.1805602592201 0.9999999736660066
900.1814604402305 0.9999999736660095
900.182360622141 0.9999999736660123
900.1832608049516 0.9999999736660151
900.1841609886624 0.999999973666018
900.1850611732734 0.9999999736660208
900.1859613587848 0.9999999736660236
900.1868615451962 0.9999999736660264
900.1877617325077 0.9999999736660292
900.1886619207195 0.9999999736660321
900.1895621098315 0.9999999736660349
900.1904622998437 0.9999999736660378
900.1913624907561 0.9999999736660405
900.1922626825685 0.9999999736660433
900.1931628752812 0.9999999736660462
900.1940630688943 0.9999999736660491
900.1949632634075 0.9999999736660519
900.1958634588207 0.9999999736660548
900.1967636551343 0.9999999736660575
900.1976638523481 0.9999999736660603
900.1985640504619 0.9999999736660632
900.199464249476 0.999999973666066
900.2003644493906 0.9999999736660689
900.2012646502048 0.9999999736660716
900.2021648519196 0.9999999736660744
900.2030650545345 0.9999999736660773
900.2039652580496 0.9999999736660802
900.2048654624649 0.999999973666083
900.2057656677805 0.9999999736660857
900.206665873996 0.9999999736660885
900.2075660811121 0.9999999736660915
900.2084662891282 0.9999999736661084
900.2093664980446 0.999999973666153
900.2102667078611 0.9999999736661975
900.211166918578 0.9999999736662423
900.2120671301949 0.9999999736662868
900.2129673427122 0.9999999736663315
900.2138675561295 0.9999999736663762
900.2147677704475 0.9999999736664207
900.2156679856652 0.9999999736664653
900.2165682017832 0.99999997366651
900.2174684188016 0.9999999736665547
900.2183686367199 0.9999999736665993
900.2192688555386 0.999999973666644
900.2201690752576 0.9999999736666886
900.2210692958768 0.9999999736667332
900.2219695173961 0.9999999736667778
900.2228697398157 0.9999999736668226
900.2237699631354 0.9999999736668672
900.2246701873555 0.9999999736669118
900.2255704124758 0.9999999736669566
900.2264706384963 0.9999999736670011
900.2273708654169 0.9999999736670458
900.2282710932378 0.9999999736670905
900.229171321959 0.9999999736671351
900.2300715515805 0.9999999736671799
900.2309717821018 0.9999999736672243
900.2318720135238 0.999999973667269
900.2327722458459 0.9999999736673136
900.2336724790683 0.9999999736673583
900.2345727131908 0.999999973667403
900.2354729482137 0.9999999736674476
900.2363731841367 0.9999999736674923
900.2372734209599 0.9999999736675369
900.2381736586835 0.9999999736675815
900.2390738973071 0.9999999736676263
900.2399741368312 0.9999999736676709
900.2408743772554 0.9999999736677155
900.2417746185798 0.9999999736677603
900.2426748608045 0.9999999736678049
900.2435751039295 0.9999999736678495
900.2444753479547 0.9999999736678943
900.2453755928801 0.9999999736679389
900.2462758387059 0.9999999736679834
900.2471760854318 0.9999999736680282
900.2480763330581 0.9999999736680728
900.2489765815844 0.9999999736681175
900.2498768310113 0.9999999736681622
900.250777081338 0.9999999736682069
900.2516773325652 0.9999999736682516
900.2525775846927 0.9999999736682962
900.2534778377203 0.9999999736683408
900.2543780916483 0.9999999736683854
900.2552783464765 0.9999999736684303
900.2561786022051 0.9999999736684749
900.2570788588337 0.9999999736685196
900.2579791163627 0.9999999736685642
900.2588793747918 0.9999999736686088
900.2597796341213 0.9999999736686536
900.260679894351 0.9999999736686983
900.261580155481 0.9999999736687429
900.2624804175114 0.9999999736687875
900.2633806804417 0.9999999736688322
900.2642809442725 0.9999999736688769
900.2651812090035 0.9999999736689216
900.266081474635 0.9999999736689663
900.2669817411663 0.9999999736690109
900.2678820085983 0.9999999736690556
900.2687822769304 0.9999999736691003
900.2696825461628 0.9999999736691451
900.2705828162955 0.9999999736691897
900.2714830873283 0.9999999736692343
900.2723833592615 0.9999999736692791
900.273283632095 0.9999999736693238
900.2741839058286 0.9999999736693685
900.2750841804626 0.9999999736694131
900.275984455997 0.9999999736694578
900.2768847324317 0.9999999736695026
900.2777850097663 0.9999999736695471
900.2786852880015 0.9999999736695918
900.2795855671369 0.9999999736696364
900.2804858471725 0.9999999736696812
900.2813861281085 0.9999999736697259
900.2822864099447 0.9999999736697706
900.2831866926813 0.9999999736698153
900.2840869763181 0.9999999736698599
900.2849872608552 0.9999999736699047
900.2858875462927 0.9999999736699494
900.2867878326304 0.999999973669994
900.2876881198681 0.9999999736700387
900.2885884080065 0.9999999736700835
900.2894886970449 0.9999999736701282
900.2903889869838 0.9999999736701729
900.2912892778226 0.9999999736702176
900.292189569562 0.9999999736702623
900.2930898622019 0.999999973670307
900.2939901557417 0.9999999736703516
900.2948904501819 0.9999999736703963
900.2957907455225 0.999999973670441
900.2966910417633 0.9999999736704858
900.2975913389042 0.9999999736705305
900.2984916369458 0.9999999736705751
900.2993919358875 0.9999999736706199
900.3002922357296 0.9999999736706645
900.3011925364718 0.9999999736707093
900.3020928381144 0.999999973670754
900.3029931406575 0.9999999736707987
900.3038934441007 0.9999999736708434
900.3047937484444 0.9999999736708881
900.3056940536881 0.9999999736709329
900.3065943598324 0.9999999736709776
900.3074946668769 0.9999999736710223
900.3083949748217 0.9999999736710671
900.309295283667 0.9999999736711116
900.3101955934121 0.9999999736711563
900.3110959040579 0.9999999736712011
900.3119962156038 0.9999999736712457
900.3128965280501 0.9999999736712905
900.3137968413969 0.9999999736713352
900.3146971556439 0.9999999736713799
900.3155974707911 0.9999999736714246
900.3164977868386 0.9999999736714694
900.3173981037866 0.999999973671514
900.3182984216348 0.9999999736715588
900.3191987403833 0.9999999736716035
900.3200990600324 0.9999999736716483
900.3209993805816 0.999999973671693
900.321899702031 0.9999999736717377
900.3228000243807 0.9999999736717825
900.323700347631 0.9999999736718272
900.3246006717815 0.9999999736718719
900.3255009968323 0.9999999736719165
900.3264013227833 0.9999999736719613
900.3273016496348 0.999999973672006
900.3282019773867 0.9999999736720507
900.3291023060387 0.9999999736720955
900.3300026355911 0.9999999736721402
900.3309029660439 0.9999999736721848
900.331803297397 0.9999999736722297
900.3327036296505 0.9999999736722744
900.3336039628042 0.9999999736723193
900.3345042968583 0.9999999736723645
900.3354046318127 0.9999999736724096
900.3363049676675 0.9999999736724547
900.3372053044228 0.9999999736724997
900.3381056420781 0.9999999736725449
900.3390059806339 0.9999999736725901
900.33990632009 0.999999973672635
900.3408066604466 0.9999999736726802
900.3417070017032 0.9999999736727253
900.3426073438604 0.9999999736727703
900.343507686918 0.9999999736728155
900.3444080308757 0.9999999736728605
900.3453083757339 0.9999999736729056
900.3462087214925 0.9999999736729508
900.3471090681511 0.9999999736729959
900.3480094157104 0.999999973673041
900.34890976417 0.9999999736730861
900.3498101135299 0.9999999736731312
900.3507104637902 0.9999999736731764
900.3516108149508 0.9999999736732215
900.3525111670116 0.9999999736732665
900.353411519973 0.9999999736733116
900.3543118738346 0.9999999736733568
900.3552122285967 0.999999973673402
900.3561125842591 0.9999999736734471
900.3570129408217 0.9999999736734921
900.3579132982849 0.9999999736735372
900.3588136566484 0.9999999736735824
900.3597140159121 0.9999999736736275
900.3606143760762 0.9999999736736727
900.3615147371407 0.9999999736737177
900.3624150991056 0.9999999736737628
900.3633154619708 0.9999999736738079
900.3642158257364 0.9999999736738531
900.3651161904023 0.9999999736738983
900.3660165559686 0.9999999736739433
900.3669169224354 0.9999999736739885
900.3678172898025 0.9999999736740336
900.3687176580698 0.9999999736740788
900.3696180272376 0.9999999736741239
900.370518397306 0.9999999736741689
900.3714187682745 0.9999999736742142
900.3723191401434 0.9999999736742595
900.3732195129127 0.9999999736743046
900.3741198865823 0.9999999736743499
900.3750202611524 0.9999999736743952
900.3759206366227 0.9999999736744404
900.3768210129937 0.9999999736744857
900.3777213902647 0.9999999736745309
900.3786217684362 0.999999973674576
900.3795221475082 0.9999999736746213
900.3804225274805 0.9999999736746665
900.3813229083532 0.9999999736747117
900.3822232901261 0.9999999736747569
900.3831236727998 0.9999999736748021
900.3840240563736 0.9999999736748474
900.3849244408478 0.9999999736748926
900.3858248262225 0.9999999736749379
900.3867252124975 0.9999999736749831
900.3876255996728 0.9999999736750284
900.3885259877486 0.9999999736750737
900.3894263767248 0.9999999736751187
900.3903267666016 0.999999973675164
900.3912271573782 0.9999999736752093
900.3921275490555 0.9999999736752545
900.3930279416334 0.9999999736752998
900.3939283351115 0.999999973675345
900.3948287294899 0.9999999736753903
900.3957291247688 0.9999999736754355
900.3966295209481 0.9999999736754808
900.3975299180277 0.9999999736755261
900.3984303160078 0.9999999736755713
900.3993307148883 0.9999999736756165
900.4002311146692 0.9999999736756617
900.4011315153505 0.9999999736757069
900.4020319169321 0.9999999736757521
900.402932319414 0.9999999736757974
900.4038327227967 0.9999999736758427
900.4047331270797 0.9999999736758879
900.405633532263 0.9999999736759332
900.4065339383466 0.9999999736759784
900.4074343453307 0.9999999736760237
900.4083347532152 0.999999973676069
900.4092351620001 0.9999999736761142
900.4101355716855 0.9999999736761594
900.4110359822713 0.9999999736762046
900.4119363937574 0.99999997367625
900.4128368061439 0.9999999736762952
900.4137372194309 0.9999999736763405
900.4146376336182 0.9999999736763858
900.4155380487061 0.999999973676431
900.4164384646944 0.9999999736764763
900.4173388815831 0.9999999736765215
900.4182392993721 0.9999999736765668
900.4191397180616 0.999999973676612
900.4200401376515 0.9999999736766573
900.4209405581418 0.9999999736767025
900.4218409795324 0.9999999736767478
900.4227414018235 0.999999973676793
900.423641825015 0.9999999736768383
900.424542249107 0.9999999736768836
900.4254426740995 0.9999999736769288
900.4263430999921 0.9999999736769741
900.4272435267856 0.9999999736770193
900.4281439544791 0.9999999736770646
900.4290443830733 0.9999999736771099
900.4299448125679 0.9999999736771552
900.4308452429628 0.9999999736772005
900.4317456742582 0.9999999736772457
900.4326461064541 0.9999999736772911
900.4335465395504 0.9999999736773363
900.4344469735471 0.9999999736773816
900.4353474084443 0.9999999736774269
900.4362478442418 0.9999999736774721
900.4371482809398 0.9999999736775174
900.4380487185383 0.9999999736775627
900.4389491570372 0.999999973677608
900.4398495964364 0.9999999736776533
900.4407500367362 0.9999999736776984
900.4416504779364 0.9999999736777436
900.4425509200371 0.9999999736777889
900.4434513630382 0.9999999736778343
900.4443518069397 0.9999999736778795
900.4452522517419 0.9999999736779248
900.4461526974443 0.9999999736779701
900.4470531440471 0.9999999736780154
900.4479535915502 0.9999999736780607
900.448854039954 0.9999999736781059
900.4497544892585 0.9999999736781513
900.4506549394631 0.9999999736781966
900.4515553905683 0.9999999736782419
900.4524558425738 0.9999999736782871
900.4533562954798 0.9999999736783324
900.4542567492863 0.9999999736783777
900.4551572039933 0.999999973678423
900.4560576596007 0.9999999736784683
900.4569581161086 0.9999999736785136
900.4578585735169 0.9999999736785589
900.4587590318256 0.9999999736786043
900.4596594910348 0.9999999736786495
900.4605599511445 0.9999999736786946
900.4614604121547 0.99999997367874
900.4623608740653 0.9999999736787852
900.4632613368763 0.9999999736788306
900.4641618005877 0.9999999736788758
900.4650622651999 0.9999999736789211
900.4659627307124 0.9999999736789665
900.4668631971253 0.9999999736790117
900.4677636644387 0.999999973679057
900.4686641326526 0.9999999736791024
900.4695646017668 0.9999999736791477
900.4704650717817 0.999999973679193
900.4713655426972 0.9999999736792383
900.4722660145127 0.9999999736792836
900.473166487229 0.9999999736793289
900.4740669608458 0.9999999736793742
900.4749674353628 0.9999999736794195
900.4758679107805 0.9999999736794648
900.4767683870987 0.9999999736795101
900.4776688643173 0.9999999736795555
900.4785693424363 0.9999999736796007
900.479469821456 0.9999999736796461
900.4803703013758 0.9999999736796913
900.4812707821965 0.9999999736797366
900.4821712639174 0.9999999736797819
900.4830717465388 0.9999999736798273
900.4839722300608 0.9999999736798726
900.4848727144832 0.9999999736799178
900.4857731998062 0.9999999736799631
