Atmospheric Species: CO
Metallicity: 100
C/O_Ratio: 1.5
Wavelength[nm] Flux_variation
1799.9989592438712 1.0
1800.0007592437303 0.9999999996611674
1800.0025592453896 0.9999999992525475
1800.004359248849 0.9999999987692021
1800.0061592541078 0.9999999982662915
1800.0079592611673 0.999999997853651
1800.0097592700265 0.9999999976188314
1800.0115592806853 0.9999999975475631
1800.0133592931445 0.999999997537476
1800.015159307404 0.9999999974875028
1800.0169593234634 0.9999999973596668
1800.0187593413225 0.9999999971682961
1800.0205593609817 0.9999999969413668
1800.022359382441 0.9999999966984289
1800.0241594057002 0.9999999964487443
1800.0259594307595 0.9999999961959347
1800.0277594576187 0.9999999959414092
1800.0295594862782 0.9999999956858097
1800.0313595167377 0.9999999954294887
1800.0331595489968 0.9999999951726659
1800.034959583057 0.9999999949154865
1800.0367596189162 0.999999994658048
1800.0385596565757 0.9999999944004108
1800.0403596960355 0.9999999941426141
1800.0421597372952 0.9999999938846874
1800.043959780355 0.9999999936266565
1800.0457598252146 0.9999999933685438
1800.0475598718742 0.999999993110366
1800.0493599203348 0.9999999928521341
1800.0511599705944 0.9999999925938556
1800.0529600226544 0.9999999923355367
1800.0547600765144 0.9999999920771828
1800.0565601321746 0.9999999918187988
1800.0583601896344 0.9999999915603883
1800.060160248895 0.9999999913019536
1800.061960309955 0.999999991043496
1800.0637603728153 0.9999999907850153
1800.0655604374756 0.9999999905265088
1800.067360503936 0.999999990267966
1800.0691605721963 0.9999999900093574
1800.070960642257 0.9999999897506104
1800.0727607141173 0.9999999894916067
1800.074560787778 0.9999999892322574
1800.0763608632387 0.9999999889726772
1800.0781609404996 0.9999999887132812
1800.0799610195606 0.9999999884545506
1800.0817611004218 0.9999999881966033
1800.0835611830826 0.999999987939078
1800.085361267544 0.9999999876814821
1800.0871613538052 0.9999999874235627
1800.088961441866 0.99999998716534
1800.0907615317276 0.9999999869069343
1800.0925616233892 0.9999999866484404
1800.094361716851 0.9999999863899055
1800.0961618121128 0.9999999861313483
1800.0979619091743 0.9999999858727764
1800.0997620080361 0.9999999856141921
1800.1015621086983 0.9999999853555965
1800.1033622111604 0.9999999850969875
1800.1051623154226 0.9999999848383598
1800.1069624214847 0.9999999845797036
1800.1087625293474 0.999999984321009
1800.11056263901 0.9999999840622783
1800.1123627504724 0.9999999838035358
1800.1141628637351 0.9999999835448145
1800.115962978798 0.9999999832861205
1800.117763095661 0.9999999830274127
1800.1195632143244 0.9999999827686068
1800.121363334787 0.9999999825095615
1800.1231634570509 0.9999999822499891
1800.1249635811143 0.9999999819893526
1800.1267637069775 0.9999999817270279
1800.1285638346415 0.9999999814630199
1800.1303639641053 0.9999999811988242
1800.1321640953695 0.9999999809370925
1800.1339642284333 0.9999999806796362
1800.1357643632975 0.9999999804257184
1800.137564499962 0.9999999801727713
1800.1393646384263 0.9999999799186086
1800.1411647786908 0.9999999796626124
1800.1429649207557 0.9999999794052405
1800.1447650646205 0.9999999791471231
1800.1465652102856 0.9999999788886511
1800.148365357751 0.9999999786299894
1800.1501655070163 0.9999999783711869
1800.1519656580817 0.9999999781122416
1800.1537658109473 0.9999999778531194
1800.1555659656133 0.9999999775937444
1800.1573661220793 0.9999999773339491
1800.1591662803455 0.9999999770733079
1800.160966440412 0.9999999768106825
1800.1627666022782 0.9999999765434224
1800.164566765945 0.9999999762670754
1800.1663669314116 0.9999999759779487
1800.1681670986784 0.9999999756794491
1800.1699672677457 0.9999999753863824
1800.1717674386132 0.9999999751174146
1800.1735676112805 0.9999999748789675
1800.1753677857482 0.9999999746588613
1800.177167962016 0.9999999744380621
1800.1789681400837 0.9999999742055106
1800.180768319952 0.9999999739610048
1800.1825685016202 0.9999999737090576
1800.1843686850887 0.9999999734535975
1800.1861688703573 0.9999999731966714
1800.187969057426 0.9999999729391027
1800.1897692462953 0.999999972681201
1800.1915694369645 0.9999999724230985
1800.1933696294338 0.9999999721648634
1800.1951698237037 0.9999999719065366
1800.1969700197737 0.9999999716481435
1800.1987702176436 0.9999999713897015
1800.200570417314 0.9999999711312224
1800.2023706187845 0.9999999708727145
1800.204170822055 0.9999999706141839
1800.2059710271258 0.999999970355635
1800.207771233997 0.9999999700970711
1800.2095714426682 0.9999999698384947
1800.2113716531396 0.9999999695799079
1800.2131718654114 0.9999999693213121
1800.2149720794832 0.9999999690627085
1800.2167722953552 0.999999968804098
1800.2185725130275 0.9999999685454813
1800.2203727324998 0.9999999682868592
1800.222172953773 0.999999968028232
1800.223973176846 0.9999999677695999
1800.2257734017192 0.9999999675109634
1800.2275736283925 0.9999999672523224
1800.2293738568665 0.9999999669936774
1800.2311740871405 0.999999966735028
1800.2329743192142 0.9999999664763743
1800.2347745530888 0.9999999662177164
1800.236574788763 0.9999999659590539
1800.2383750262381 0.9999999657003867
1800.2401752655132 0.9999999654417145
1800.2419755065885 0.9999999651830369
1800.2437757494642 0.9999999649243532
1800.2455759941402 0.999999964665663
1800.247376240616 0.9999999644069653
1800.249176488892 0.9999999641482592
1800.2509767389686 0.9999999638895435
1800.2527769908456 0.9999999636308168
1800.2545772445226 0.9999999633720769
1800.2563775 0.9999999631133214
1800.2581777572773 0.9999999628545471
1800.259978016355 0.9999999625957503
1800.2617782772334 0.9999999623369252
1800.2635785399118 0.999999962078065
1800.2653788043906 0.9999999618191602
1800.267179070669 0.9999999615601972
1800.2689793387483 0.9999999613011578
1800.2707796086277 0.9999999610420146
1800.2725798803074 0.9999999607827277
1800.2743801537872 0.9999999605232338
1800.2761804290674 0.9999999602634242
1800.277980706148 0.9999999600030783
1800.2797809850285 0.999999959741658
1800.2815812657095 0.9999999594777812
1800.283381548191 0.9999999592083648
1800.285181832473 0.9999999589284425
1800.2869821185548 0.9999999586340984
1800.2887824064367 0.9999999583292177
1800.2905826961191 0.9999999580299431
1800.2923829876015 0.9999999577569723
1800.2941832808851 0.9999999575186963
1800.2959835759682 0.9999999573033006
1800.297783872852 0.9999999570897246
1800.299584171536 0.9999999568639428
1800.3013844720203 0.9999999566240562
1800.3031847743046 0.9999999563746149
1800.3049850783898 0.9999999561203877
1800.3067853842754 0.999999955864158
1800.3085856919608 0.999999955607119
1800.3103860014467 0.999999955349672
1800.3121863127326 0.999999955091928
1800.3139866258189 0.999999954833934
1800.3157869407053 0.9999999545757355
1800.3175872573925 0.9999999543173573
1800.3193875758795 0.9999999540587758
1800.3211878961672 0.9999999537999308
1800.322988218255 0.9999999535408141
1800.324788542143 0.9999999532816018
1800.326588867832 0.9999999530226432
1800.328389195321 0.999999952764205
1800.3301895246102 0.9999999525062159
1800.3319898557002 0.9999999522483447
1800.3337901885902 0.9999999519903052
1800.3355905232806 0.9999999517320223
1800.3373908597714 0.9999999514735616
1800.3391911980623 0.9999999512150073
1800.3409915381535 0.99999995095641
1800.342791880045 0.9999999506977918
1800.344592223737 0.9999999504391612
1800.3463925692295 0.9999999501805219
1800.3481929165218 0.9999999499218758
1800.3499932656148 0.9999999496632243
1800.3517936165083 0.999999949404568
1800.353593969202 0.9999999491459081
1800.355394323696 0.9999999488872447
1800.3571946799907 0.9999999486285784
1800.3589950380854 0.9999999483699094
1800.3607953979806 0.9999999481112378
1800.362595759676 0.9999999478525642
1800.364396123172 0.9999999475938884
1800.3661964884682 0.9999999473352109
1800.3679968555648 0.9999999470765314
1800.3697972244618 0.9999999468178504
1800.371597595159 0.9999999465591678
1800.3733979676567 0.9999999463004838
1800.375198341955 0.9999999460417984
1800.3769987180535 0.9999999457831116
1800.3787990959522 0.9999999455244236
1800.3805994756517 0.9999999452657344
1800.3823998571509 0.999999945007044
1800.3842002404513 0.9999999447483525
1800.3860006255513 0.99999994448966
1800.387801012452 0.9999999442309663
1800.3896014011536 0.9999999439722715
1800.391401791655 0.9999999437135759
1800.3932021839566 0.9999999434548792
1800.395002578059 0.9999999431961815
1800.3968029739617 0.999999942937483
1800.3986033716649 0.9999999426787834
1800.4004037711682 0.9999999424200829
1800.4022041724722 0.9999999421613817
1800.4040045755767 0.9999999419026795
1800.4058049804812 0.9999999416439763
1800.4076053871865 0.9999999413852723
1800.4094057956918 0.9999999411265674
1800.4112062059978 0.9999999408678616
1800.4130066181044 0.999999940609155
1800.4148070320111 0.9999999403504474
1800.4166074477182 0.9999999400917388
1800.4184078652256 0.9999999398330293
1800.4202082845338 0.9999999395743187
1800.4220087056424 0.999999939315607
1800.423809128551 0.9999999390568943
1800.42560955326 0.9999999387981803
1800.4274099797701 0.9999999385394648
1800.4292104080803 0.9999999382807475
1800.4310108381903 0.999999938022028
1800.4328112701016 0.9999999377633055
1800.4346117038128 0.9999999375045783
1800.436412139325 0.9999999372458428
1800.4382125766372 0.9999999369870902
1800.4400130157503 0.9999999367283022
1800.4418134566633 0.9999999364694443
1800.4436138993767 0.9999999362104712
1800.445414343891 0.9999999359513687
1800.4472147902052 0.9999999356922178
1800.4490152383203 0.9999999354332054
1800.4508156882355 0.999999935174501
1800.4526161399515 0.9999999349160993
1800.4544165934676 0.9999999346578222
1800.4562170487843 0.9999999343994794
1800.4580175059016 0.9999999341409948
1800.4598179648192 0.9999999338823921
1800.4616184255372 0.999999933623723
1800.463418888056 0.9999999333650239
1800.4652193523748 0.9999999331063116
1800.4670198184942 0.9999999328475929
1800.468820286414 0.9999999325888699
1800.4706207561348 0.9999999323301437
1800.4724212276558 0.9999999320714147
1800.474221700977 0.9999999318126824
1800.476022176099 0.9999999315539457
1800.4778226530211 0.9999999312952006
1800.4796231317441 0.9999999310364379
1800.4814236122677 0.9999999307776433
1800.483224094591 0.9999999305188065
1800.4850245787152 0.9999999302599424
1800.4868250646402 0.9999999300011012
1800.4886255523654 0.999999929742341
1800.4904260418912 0.9999999294836764
1800.4922265332175 0.9999999292250652
1800.4940270263437 0.9999999289664472
1800.4958275212716 0.9999999287077898
1800.497628017999 0.9999999284490941
1800.4994285165271 0.9999999281903744
1800.5012290168559 0.999999927931643
1800.5030295189854 0.9999999276729064
1800.5048300229146 0.9999999274142879
1800.5066305286448 0.9999999271558632
1800.5084310361756 0.9999999268974368
1800.510231545507 0.9999999266390089
1800.5120320566386 0.9999999263805799
1800.5138325695712 0.9999999261221498
1800.5156330843038 0.9999999258637189
1800.517433600837 0.9999999256052872
1800.519234119171 0.9999999253468539
1800.521034639305 0.9999999250884185
1800.52283516124 0.9999999248299806
1800.5246356849752 0.9999999245715402
1800.5264362105113 0.9999999243130996
1800.5282367378475 0.9999999240546606
1800.530037266984 0.9999999237962244
1800.5318377979218 0.9999999235377893
1800.5336383306599 0.9999999232793529
1800.5354388651986 0.9999999230209143
1800.5372394015374 0.999999922762473
1800.539039939677 0.9999999225040295
1800.5408404796171 0.9999999222455842
1800.5426410213581 0.9999999219871373
1800.544441564899 0.999999921728689
1800.5462421102409 0.999999921470239
1800.5480426573831 0.9999999212117874
1800.549843206326 0.999999920953334
1800.5516437570698 0.9999999206948786
1800.5534443096133 0.999999920436421
1800.555244863958 0.9999999201779611
1800.5570454201031 0.9999999199194988
1800.5588459780488 0.9999999196610332
1800.5606465377953 0.999999919402564
1800.5624470993416 0.9999999191440907
1800.564247662689 0.9999999188856122
1800.5660482278365 0.9999999186271274
1800.567848794785 0.9999999183686346
1800.569649363534 0.9999999181101304
1800.5714499340836 0.9999999178516108
1800.5732505064339 0.999999917593067
1800.5750510805847 0.9999999173344796
1800.5768516565358 0.9999999170757962
1800.5786522342883 0.9999999168168808
1800.5804528138403 0.9999999165574586
1800.582253395194 0.9999999162971965
1800.5840539783474 0.999999916036104
1800.5858545633016 0.9999999157750152
1800.5876551500564 0.9999999155153315
1800.5894557386118 0.9999999152578168
1800.591256328968 0.9999999150017944
1800.5930569211246 0.9999999147458585
1800.594857515082 0.9999999144891077
1800.59665811084 0.9999999142314812
1800.598458708398 0.9999999139732967
1800.6002593077574 0.9999999137148293
1800.6020599089168 0.9999999134562089
1800.603860511877 0.9999999131974706
1800.6056611166377 0.9999999129386027
1800.607461723199 0.9999999126795583
1800.609262331561 0.9999999124202392
1800.6110629417235 0.9999999121604378
1800.6128635536868 0.9999999118996872
1800.6146641674504 0.9999999116368715
1800.6164647830149 0.9999999113695163
1800.6182654003796 0.9999999110934934
1800.6200660195454 0.9999999108053758
1800.6218666405118 0.9999999105084535
1800.6236672632788 0.9999999102169096
1800.6254678878463 0.9999999099486607
1800.6272685142142 0.9999999097099024
1800.629069142383 0.9999999094889165
1800.630869772352 0.9999999092672965
1800.6326704041226 0.999999909034271
1800.6344710376932 0.999999908789592
1800.6362716730644 0.9999999085376337
1800.6380723102366 0.9999999082822298
1800.6398729492091 0.999999908025385
1800.6416735899818 0.9999999077679067
1800.6434742325562 0.9999999075100989
1800.6452748769307 0.9999999072520904
1800.6470755231057 0.9999999069939481
1800.6488761710814 0.9999999067357112
1800.6506768208578 0.9999999064774042
1800.652477472435 0.9999999062190434
1800.6542781258127 0.9999999059606399
1800.656078780991 0.9999999057022007
1800.65787943797 0.9999999054437307
1800.6596800967498 0.9999999051852335
1800.66148075733 0.9999999049267106
1800.6632814197112 0.9999999046681632
1800.6650820838927 0.9999999044095913
1800.6668827498752 0.9999999041509942
1800.6686834176583 0.9999999038923703
1800.6704840872417 0.9999999036337173
1800.6722847586261 0.9999999033750322
1800.6740854318116 0.9999999031163108
1800.675886106797 0.9999999028575476
1800.6776867835833 0.9999999025987357
1800.6794874621703 0.9999999023398659
1800.6812881425583 0.999999902080927
1800.6830888247466 0.9999999018219037
1800.6848895087362 0.9999999015627763
1800.6866901945255 0.9999999013035181
1800.688490882116 0.9999999010440932
1800.6902915715073 0.9999999007844513
1800.6920922626994 0.999999900524521
1800.6938929556916 0.9999999002641973
1800.6956936504848 0.9999999000033264
1800.6974943470789 0.9999998997416716
1800.6992950454735 0.9999998994788402
1800.7010957456691 0.9999998992140697
1800.702896447665 0.9999998989455575
1800.7046971514615 0.9999998986685593
1800.7064978570588 0.9999998983714475
1800.7082985644572 0.99999989803201
1800.710099273656 0.9999998976241294
1800.7118999846555 0.9999998971461138
1800.7137006974554 0.9999998966556063
1800.7155014120567 0.9999998962594714
1800.7173021284584 0.999999896036608
1800.719102846661 0.9999998959656394
1800.7209035666635 0.9999998959454206
1800.7227042884679 0.9999998958821639
1800.7245050120723 0.9999998957439767
1800.7263057374778 0.9999998955466858
1800.7281064646834 0.9999998953169666
1800.7299071936905 0.999999895072794
1800.7317079244979 0.999999894822521
1800.7335086571063 0.9999998945693926
1800.7353093915149 0.9999998943146802
1800.7371101277247 0.9999998940589707
1800.738910865735 0.9999998938025879
1800.7407116055463 0.9999998935457257
1800.7425123471583 0.999999893288505
1800.7443130905708 0.9999998930309908
1800.7461138357844 0.999999892773202
1800.7479145827986 0.9999998925151432
1800.7497153316133 0.9999998922568739
1800.7515160822288 0.999999891998562
1800.7533168346454 0.9999998917404067
1800.7551175888625 0.999999891482467
1800.7569183448804 0.9999998912246123
1800.758719102699 0.9999998909666682
1800.7605198623187 0.9999998907085593
1800.7623206237388 0.9999998904503058
1800.7641213869597 0.9999998901919526
1800.7659221519814 0.9999998899335254
1800.7677229188037 0.9999998896750242
1800.769523687427 0.9999998894164148
1800.7713244578508 0.9999998891575972
1800.7731252300757 0.9999998888983495
1800.7749260041012 0.9999998886383257
1800.7767267799275 0.9999998883772713
1800.7785275575545 0.9999998881154784
1800.7803283369824 0.9999998878540417
1800.7821291182113 0.9999998875943048
1800.7839299012405 0.9999998873367864
1800.7857306860708 0.9999998870807674
1800.7875314727019 0.9999998868250134
1800.7893322611335 0.9999998865686696
1800.7911330513662 0.9999998863114613
1800.7929338433994 0.9999998860534448
1800.7947346372334 0.9999998857948424
1800.7965354328685 0.9999998855359518
1800.7983362303044 0.9999998852769522
1800.8001370295412 0.9999998850177083
1800.8019378305783 0.9999998847576613
1800.8037386334167 0.9999998844956047
1800.8055394380553 0.999999884229412
1800.807340244495 0.9999998839568477
1800.8091410527359 0.9999998836785109
1800.8109418627773 0.9999998834007947
1800.8127426746196 0.9999998831335829
1800.8145434882624 0.9999998828822717
1800.8163443037058 0.9999998826425545
1800.8181451209505 0.9999998824046421
1800.8199459399964 0.9999998821614313
1800.8217467608426 0.9999998819116728
1800.82354758349 0.9999998816574276
1800.8253484079382 0.9999998814009363
1800.8271492341864 0.999999881143485
1800.8289500622361 0.9999998808856182
1800.8307508920861 0.999999880627542
1800.8325517237377 0.9999998803693412
1800.8343525571897 0.9999998801110584
1800.8361533924426 0.9999998798527188
1800.8379542294967 0.999999879594338
1800.8397550683515 0.9999998793359265
1800.8415559090063 0.9999998790774917
1800.843356751463 0.9999998788190385
1800.84515759572 0.9999998785605707
1800.8469584417778 0.9999998783020911
1800.8487592896365 0.9999998780436016
1800.8505601392958 0.9999998777851035
1800.8523609907566 0.9999998775265976
1800.8541618440174 0.9999998772680847
1800.85596269908 0.9999998770095657
1800.857763555943 0.9999998767510425
1800.8595644146067 0.9999998764925168
1800.8613652750714 0.9999998762339896
1800.863166137337 0.9999998759754601
1800.8649670014036 0.9999998757169272
1800.8667678672707 0.9999998754583902
1800.868568734939 0.9999998751998492
1800.8703696044079 0.9999998749413048
1800.8721704756779 0.9999998746827572
1800.8739713487485 0.9999998744242068
1800.87577222362 0.9999998741656535
1800.877573100293 0.9999998739070972
1800.8793739787664 0.9999998736485383
1800.8811748590406 0.9999998733899763
1800.882975741116 0.9999998731314114
1800.8847766249924 0.9999998728728431
1800.8865775106694 0.9999998726142715
1800.8883783981469 0.9999998723556963
1800.890179287426 0.9999998720971173
1800.8919801785055 0.999999871838534
1800.893781071386 0.9999998715799459
1800.8955819660673 0.9999998713213523
1800.89738286255 0.9999998710627523
1800.899183760833 0.9999998708041448
1800.9009846609176 0.9999998708843604
1800.9027855628024 0.9999998710343508
1800.9045864664881 0.9999998712590497
1800.906387371975 0.9999998715032873
1800.9081882792627 0.999999871657205
1800.9099891883516 0.9999998716331892
1800.9117900992412 0.9999998714453576
1800.9135910119317 0.9999998711958221
1800.915391926423 0.9999998709854472
1800.9171928427154 0.999999870852466
1800.9189937608087 0.9999998707834903
1800.9207946807028 0.9999998707515736
1800.922595602398 0.9999998707372797
1800.924396525894 0.9999998707304184
1800.9261974511908 0.9999998707263348
1800.9279983782883 0.9999998707232283
1800.9297993071875 0.9999998707206037
1800.931600237887 0.999999870718372
1800.9334011703877 0.9999998707164807
1800.9352021046896 0.9999998707148525
1800.9370030407918 0.9999998707134092
1800.938803978695 0.9999998707120898
1800.9406049183995 0.9999998707108452
1800.9424058599047 0.9999998707096298
1800.944206803211 0.9999998707083941
1800.9460077483184 0.9999998707070813
1800.9478086952265 0.9999998707056268
1800.9496096439352 0.9999998707039499
