Atmospheric Species: CH4_CO_CO2_H2O_NH3
Metallicity: 10
C/O_Ratio: 1.0
Wavelength[nm] Flux_variation
1999.999812280322 0.9997528785885106
2000.001812281134 0.999757517301062
2000.003812283946 0.9997781286253099
2000.0058122887588 0.9998119858424187
2000.0078122955706 0.9998513513975711
2000.0098123043829 0.9998830189720691
2000.0118123151951 0.9999016093611307
2000.0138123280071 0.9999165344019619
2000.0158123428193 0.9999336860499493
2000.017812359632 0.9999482142501548
2000.0198123784444 0.9999546549283354
2000.0218123992565 0.9999545011248362
2000.0238124220684 0.9999527994505133
2000.025812446881 0.9999534799286465
2000.0278124736938 0.9999573623879396
2000.0298125025063 0.99996207301383
2000.0318125333185 0.9999638065641819
2000.033812566131 0.9999599215241622
2000.0358126009435 0.9999482340556961
2000.037812637756 0.9999251066775078
2000.0398126765688 0.9998919088640832
2000.0418127173812 0.9998548298686679
2000.0438127601935 0.9998211260671609
2000.0458128050066 0.9997975018595536
2000.0478128518196 0.9997879492910242
2000.0498129006319 0.9997938089409625
2000.0518129514448 0.9998143988811252
2000.053813004258 0.9998468293233205
2000.055813059071 0.9998858265263355
2000.0578131158836 0.9999248433966983
2000.0598131746967 0.9999545671517697
2000.06181323551 0.99996643510885
2000.0638132983227 0.9999671274342697
2000.0658133631362 0.9999655453334891
2000.0678134299496 0.9999657136993623
2000.0698134987629 0.9999685050971266
2000.0718135695763 0.99997242962371
2000.0738136423897 0.9999752231766823
2000.0758137172033 0.9999757907077673
2000.0778137940172 0.9999738841175337
2000.079813872831 0.9999671327930417
2000.0818139536448 0.9999470166169985
2000.0838140364588 0.9999084020251459
2000.0858141212727 0.9998607884349398
2000.087814208087 0.9998119050550559
2000.089814296901 0.9997689129902319
2000.091814387715 0.999738161088914
2000.0938144805295 0.9997229269690882
2000.095814575344 0.999724288576046
2000.0978146721586 0.9997421686287191
2000.0998147709731 0.9997752363323693
2000.101814871788 0.9998196778507146
2000.1038149746025 0.999868181595188
2000.1058150794172 0.9999095136610089
2000.1078151862328 0.9999236423384016
2000.1098152950476 0.9999130031394957
2000.1118154058631 0.9999018636149154
2000.1138155186784 0.9998994923055152
2000.115815633494 0.9999076505667679
2000.1178157503095 0.9999247187064682
2000.1198158691257 0.9999454546019404
2000.121815989941 0.9999622863126361
2000.123816112757 0.9999724991905458
2000.1258162375732 0.9999798956331548
2000.1278163643894 0.9999861683895082
2000.1298164932057 0.9999886852421318
2000.1318166240221 0.9999849283116082
2000.1338167568388 0.9999753893728145
2000.1358168916554 0.9999632228915787
2000.1378170284725 0.9999527932671868
2000.1398171672895 0.999947723190047
2000.1418173081065 0.9999495316152447
2000.1438174509237 0.9999566643289374
2000.145817595741 0.9999634097662138
2000.1478177425586 0.99996413568019
2000.1498178913766 0.9999617388681004
2000.1518180421942 0.9999632149768926
2000.1538181950127 0.999970245779017
2000.1558183498312 0.999978492232983
2000.1578185066492 0.9999831996459678
2000.1598186654676 0.999984451723948
2000.1618188262864 0.9999851991901577
2000.1638189891055 0.9999866110457346
2000.165819153924 0.9999873277154517
2000.1678193207435 0.9999857781079048
2000.1698194895628 0.9999816775762194
2000.1718196603822 0.9999758925660531
2000.1738198332023 0.9999693554350086
2000.1758200080221 0.9999626890624284
2000.177820184842 0.9999566657396702
2000.1798203636622 0.9999516589118325
2000.1818205444827 0.9999475209879993
2000.183820727303 0.999944477735231
2000.1858209121242 0.9999427274315696
2000.1878210989448 0.9999419781342475
2000.1898212877659 0.9999425886519222
2000.1918214785871 0.999945346488571
2000.1938216714088 0.9999501268726512
2000.19582186623 0.9999549207569931
2000.1978220630526 0.9999568253620376
2000.1998222618745 0.9999558864291094
2000.2018224626968 0.9999550569410356
2000.2038226655195 0.9999556260954093
2000.205822870342 0.9999544729771469
2000.2078230771644 0.9999478630190018
2000.2098232859878 0.9999385531209308
2000.2118234968113 0.9999325299687483
2000.213823709635 0.9999315550151119
2000.2158239244584 0.9999304999063728
2000.2178241412826 0.9999194485346566
2000.2198243601067 0.9998941283048428
2000.2218245809313 0.9998612237572038
2000.2238248037554 0.9998293856978355
2000.2258250285802 0.9998057278821759
2000.2278252554056 0.9998058052525124
2000.2298254842308 0.999832130943154
2000.2318257150564 0.9998671492901745
2000.2338259478825 0.9999001353036201
2000.2358261827083 0.9999264942375501
2000.2378264195343 0.999945233658682
2000.2398266583607 0.9999578263253879
2000.2418268991873 0.9999677565755027
2000.2438271420144 0.9999778038208512
2000.2458273868415 0.9999878564229376
2000.247827633669 0.9999950492224451
2000.2498278824967 0.9999961226924038
2000.2518281333246 0.9999911095284364
2000.2538283861531 0.9999839657292304
2000.255828640981 0.9999788545589731
2000.2578288978098 0.9999772544423543
2000.2598291566387 0.9999784452735244
2000.2618294174679 0.999981303232587
2000.2638296802972 0.9999849343969184
2000.2658299451268 0.9999882539298716
2000.267830211957 0.9999901565974362
2000.2698304807873 0.9999901979224135
2000.271830751618 0.9999887995751593
2000.2738310244486 0.9999868291574372
2000.2758312992798 0.9999847112471593
2000.277831576111 0.999981854030057
2000.2798318549428 0.9999773891883222
2000.2818321357747 0.9999712891927856
2000.283832418607 0.9999640472330589
2000.2858327034396 0.9999546767906367
2000.2878329902726 0.9999407398522882
2000.2898332791053 0.9999239485146015
2000.2918335699385 0.9999105687121056
2000.2938338627723 0.9999048906117266
2000.2958341576061 0.9999080664322603
2000.2978344544404 0.9999195078175553
2000.299834753275 0.9999368443483772
2000.30183505411 0.9999552618818993
2000.3038353569448 0.9999695529984591
2000.3058356617803 0.9999783209432881
2000.3078359686162 0.999982118889045
2000.3098362774524 0.9999791747055894
2000.3118365882883 0.9999677429046482
2000.313836901125 0.9999514599300464
2000.3158372159623 0.9999360860069392
2000.3178375327993 0.9999237793364196
2000.319837851637 0.9999145508068594
2000.321838172475 0.9999092565909978
2000.3238384953136 0.9999076868656093
2000.3258388201518 0.9999046046971183
2000.3278391469905 0.9998950770608859
2000.3298394758299 0.9998839462325958
2000.331839806669 0.9998784465735542
2000.3338401395092 0.9998803009863769
2000.3358404743494 0.999887374995181
2000.33784081119 0.9998979811912627
2000.3398411500311 0.9999119044351363
2000.3418414908724 0.9999263382855905
2000.3438418337141 0.9999357905626487
2000.3458421785558 0.999940365346109
2000.3478425253984 0.9999425776062019
2000.3498428742414 0.999941849450514
2000.351843225084 0.9999398129210689
2000.353843577928 0.9999417229799482
2000.3558439327714 0.9999496548862161
2000.3578442896157 0.9999604203951363
2000.3598446484605 0.9999696489911051
2000.361845009305 0.9999744484595081
2000.3638453721503 0.9999721921891435
2000.3658457369957 0.9999623059848853
2000.3678461038414 0.9999485092740621
2000.3698464726879 0.9999357542205196
2000.3718468435345 0.9999275887358493
2000.3738472163816 0.9999251649429095
2000.3758475912289 0.9999267843841598
2000.3778479680766 0.9999301271176537
2000.3798483469245 0.9999354449054496
2000.3818487277726 0.9999444805883032
2000.3838491106217 0.999956860690961
2000.3858494954707 0.9999681424117277
2000.3878498823208 0.9999727845771237
2000.389850271171 0.9999715966744268
2000.391850662021 0.9999706120167158
2000.3938510548717 0.999972699836416
2000.3958514497233 0.9999743451236016
2000.3978518465744 0.9999705925858117
2000.3998522454267 0.9999634687010994
2000.4018526462794 0.9999595446790839
2000.4038530491318 0.9999625699795199
2000.405853453985 0.9999717989134456
2000.407853860839 0.9999822349946696
2000.4098542696927 0.9999877751377347
2000.4118546805466 0.9999874502144321
2000.4138550934015 0.9999847044799227
2000.4158555082572 0.9999821436693852
2000.4178559251125 0.9999804637998055
2000.4198563439686 0.9999789998765025
2000.421856764825 0.9999767067610298
2000.423857187682 0.9999741887538238
2000.425857612539 0.9999738208977347
2000.427858039397 0.9999771577123729
2000.4298584682556 0.9999829504565614
2000.4318588991136 0.9999878120245673
2000.4338593319726 0.9999885529029351
2000.4358597668324 0.9999832935339595
2000.4378602036923 0.9999728556924228
2000.4398606425525 0.9999618474414326
2000.4418610834134 0.9999555447918933
2000.4438615262745 0.999956308787807
2000.4458619711359 0.9999627043310909
2000.4478624179985 0.9999695565299228
2000.449862866861 0.9999713550657042
2000.4518633177238 0.9999684574735829
2000.453863770587 0.9999651915749976
2000.4558642254513 0.9999633139176987
2000.4578646823156 0.999961034634066
2000.4598651411802 0.9999570342854052
2000.4618656020457 0.9999535645195305
2000.4638660649114 0.9999539743874849
2000.4658665297777 0.9999594998109937
2000.4678669966447 0.9999682363199248
2000.4698674655117 0.9999761938759373
2000.4718679363796 0.9999813810968184
2000.4738684092474 0.999985372211525
2000.475868884116 0.9999896753405885
2000.477869360985 0.9999931567031746
2000.4798698398545 0.999993050465943
2000.4818703207245 0.9999879938675922
2000.483870803595 0.9999792374635126
2000.485871288466 0.9999685633586358
2000.4878717753377 0.9999575664509014
2000.4898722642095 0.9999489747088243
2000.491872755082 0.9999456954195193
2000.4938732479552 0.9999487817253997
2000.4958737428285 0.9999564767692279
2000.4978742397027 0.9999647916778766
2000.4998747385769 0.9999709545473134
2000.5018752394521 0.9999752064486832
2000.5038757423272 0.9999777936112334
2000.5058762472029 0.9999780013778949
2000.5078767540795 0.9999757416124664
2000.509877262956 0.9999715817196055
2000.5118777738342 0.9999665344852116
2000.5138782867118 0.999962546944861
2000.5158788015904 0.9999611733665515
2000.5178793184689 0.9999607741609028
2000.519879837349 0.9999541516963179
2000.5218803582286 0.9999332724352659
2000.5238808811096 0.9999024317116914
2000.5258814059907 0.9998694961510322
2000.5278819328719 0.9998381943774418
2000.5298824617544 0.9998135685780902
2000.5318829926364 0.9998006036114099
2000.5338835255197 0.999802046238978
2000.5358840604035 0.999818193591209
2000.537884597288 0.9998465755733168
2000.5398851361724 0.999881387310458
2000.5418856770577 0.9999149359305797
2000.5438862199437 0.9999413351753753
2000.54588676483 0.9999582436419535
2000.5478873117172 0.9999673618529081
2000.5498878606047 0.9999720304679526
2000.5518884114929 0.9999750303645819
2000.5538889643813 0.9999776537976187
2000.5558895192703 0.9999792003359638
2000.5578900761602 0.9999774851270602
2000.5598906350506 0.9999712951197695
2000.5618911959411 0.9999630285044344
2000.5638917588328 0.9999568536061356
2000.5658923237245 0.9999552824179192
2000.567892890617 0.9999579800728523
2000.5698934595102 0.9999615188697474
2000.5718940304037 0.9999608536171504
2000.573894603298 0.9999548535234457
2000.575895178193 0.9999482517557889
2000.5778957550883 0.9999461049530023
2000.5798963339842 0.9999505370878697
2000.5818969148809 0.9999599504889718
2000.5838974977776 0.9999670184524843
2000.5858980826756 0.9999610262348803
2000.5878986695739 0.9999433419717497
2000.589899258473 0.9999259992574718
2000.591899849372 0.9999156023481957
2000.5939004422726 0.9999136147165332
2000.5959010371732 0.9999196535155755
2000.5979016340743 0.9999311857396973
2000.599902232976 0.999942330804612
2000.6019028338785 0.9999485081979128
2000.6039034367816 0.9999502949332831
2000.605904041685 0.9999420417751976
2000.6079046485897 0.999908558945631
2000.6099052574943 0.9998538955359891
2000.6119058683998 0.9997937105643002
2000.613906481306 0.9997410936753738
2000.6159070962128 0.9997033637711699
2000.61790771312 0.9996829986412226
2000.6199083320282 0.9996804831639081
2000.621908952937 0.9996958346455
2000.623909575846 0.9997287828529041
2000.625910200756 0.9997775992593785
2000.627910827666 0.9998365467862366
2000.6299114565775 0.9998937103896516
2000.6319120874891 0.9999337406859223
2000.633912720402 0.9999430535442916
2000.6359133553146 0.9999273460066763
2000.6379139922285 0.9998965395181658
2000.6399146311426 0.9998557633635529
2000.6419152720573 0.9998120460563296
2000.643915914973 0.9997755886521656
2000.645916559889 0.9997529812883454
2000.6479172068057 0.9997467463890101
2000.649917855723 0.9997573823277257
2000.6519185066409 0.9997839136926822
2000.6539191595598 0.9998219378162159
2000.6559198144796 0.9998595489680487
2000.6579204713996 0.9998853810644643
2000.65992113032 0.9998965532531349
2000.6619217912419 0.9998966471167797
2000.6639224541639 0.9998911751460113
2000.6659231190863 0.9998836080035916
2000.6679237860099 0.9998738621204155
2000.6699244549338 0.9998639795581525
2000.6719251258585 0.9998567248746799
2000.6739257987842 0.9998560202386859
2000.67592647371 0.9998635695728915
2000.6779271506366 0.9998802296009214
2000.6799278295641 0.9999060256800218
2000.6819285104925 0.9999360121876074
2000.6839291934211 0.999956508172479
2000.6859298783502 0.9999612931704358
2000.6879305652806 0.9999554890079244
2000.6899312542112 0.9999438084802803
2000.691931945143 0.9999305727160337
2000.6939326380752 0.9999200593493661
2000.6959333330078 0.9999140081561054
2000.6979340299417 0.9999120116800718
2000.6999347288759 0.9999140677668039
2000.7019354298113 0.9999216486660435
2000.7039361327465 0.999935285530057
2000.705936837683 0.999949522203352
2000.7079375446203 0.9999536459080159
2000.7099382535578 0.9999468043508288
2000.7119389644963 0.9999381454990854
2000.7139396774357 0.9999334602746457
2000.7159403923756 0.9999334176977573
2000.7179411093164 0.9999356209368432
2000.7199418282578 0.9999377341930076
2000.7219425491999 0.9999411571336105
2000.7239432721424 0.9999484855411325
2000.7259439970862 0.9999583993126901
2000.7279447240305 0.9999664753729379
2000.7299454529755 0.9999709686818646
2000.7319461839213 0.999973916294965
2000.7339469168678 0.9999767073791128
2000.735947651815 0.999978741022925
2000.7379483887632 0.9999795841419439
2000.7399491277117 0.9999804006667935
2000.741949868661 0.9999825554666864
2000.7439506116116 0.9999855865404257
2000.745951356562 0.9999876208840267
2000.7479521035139 0.9999875377824197
2000.7499528524665 0.9999852021501002
2000.7519536034195 0.9999796704110204
2000.7539543563735 0.9999694354005827
2000.7559551113281 0.999955599357504
2000.7579558682833 0.9999428915902203
2000.75995662724 0.999935824150506
2000.7619573881968 0.9999361070109776
2000.7639581511546 0.9999427356330219
2000.7659589161133 0.9999521675093874
2000.7679596830724 0.9999606164849573
2000.7699604520324 0.9999676022300967
2000.7719612229935 0.9999738810626423
2000.7739619959548 0.9999785009175086
2000.775962770917 0.9999806571553611
2000.7779635478798 0.9999813289886152
2000.7799643268443 0.9999815766056108
2000.7819651078087 0.9999810241832092
2000.783965890774 0.9999784240431582
2000.7859666757402 0.9999734572562323
2000.7879674627075 0.9999680526696212
2000.789968251675 0.9999651448185299
2000.7919690426434 0.9999664541628032
2000.7939698356126 0.9999718974382035
2000.795970630583 0.9999799117372711
2000.7979714275539 0.999987747810923
2000.7999722265256 0.9999929213593132
2000.8019730274982 0.9999947537643411
2000.8039738304715 0.9999929665133598
2000.8059746354456 0.9999866055356792
2000.8079754424211 0.9999765513372428
2000.8099762513964 0.9999664386489733
2000.8119770623734 0.9999592411776969
2000.8139778753505 0.9999547234200317
2000.8159786903286 0.9999505189078169
2000.8179795073077 0.9999460710225739
2000.8199803262876 0.999944090644361
2000.8219811472686 0.9999470595532667
2000.8239819702499 0.9999545719858842
2000.8259827952318 0.9999625105654307
2000.8279836222155 0.999963524773351
2000.8299844511994 0.9999531842255434
2000.831985282184 0.999936422316647
2000.8339861151694 0.9999212077826487
2000.835986950156 0.9999115840335621
2000.8379877871434 0.9999092466044778
2000.8399886261318 0.9999151292051613
2000.8419894671204 0.9999281463657194
2000.84399031011 0.9999431864843021
2000.8459911551006 0.9999531657563986
2000.8479920020925 0.9999565617096834
2000.8499928510848 0.9999576408521739
2000.8519937020778 0.9999602228837527
2000.853994555072 0.9999656721718769
2000.855995410067 0.9999730516649771
2000.8579962670626 0.9999794978049457
2000.8599971260594 0.9999822303712071
2000.861997987057 0.9999811874366943
2000.8639988500552 0.9999789269775777
2000.8659997150544 0.9999780761750018
2000.8680005820545 0.9999792232592893
2000.8700014510555 0.9999804067679118
2000.872002322057 0.999978836684583
2000.8740031950601 0.9999744551753698
2000.8760040700631 0.9999705783693839
2000.8780049470681 0.9999707088538343
2000.8800058260733 0.9999752910070918
2000.8820067070794 0.9999811698950293
2000.8840075900869 0.9999832683470695
2000.886008475095 0.9999769570910367
2000.8880093621042 0.9999623086175448
2000.8900102511134 0.9999453102864192
2000.892011142124 0.9999322118744731
2000.8940120351353 0.9999261699767118
2000.8960129301477 0.9999283262226757
2000.8980138271609 0.9999383719622463
2000.900014726175 0.9999539694158152
2000.90201562719 0.9999685470650319
2000.904016530206 0.9999717982207994
2000.906017435223 0.9999596785148107
2000.908018342241 0.9999398209135707
2000.9100192512599 0.9999215025403493
2000.9120201622795 0.9999096675874827
2000.9140210752998 0.9999063870687618
2000.916021990322 0.9999117612375685
2000.918022907344 0.9999243084738328
2000.9200238263672 0.9999415077746505
2000.9220247473918 0.9999594672355163
2000.9240256704163 0.9999735900602603
2000.9260265954426 0.9999827795009536
2000.9280275224694 0.9999887151194916
2000.9300284514975 0.999992119965369
2000.9320293825265 0.9999932800561082
2000.9340303155564 0.9999934978739984
2000.9360312505873 0.9999942438045359
2000.9380321876183 0.9999955908717519
2000.9400331266515 0.9999957874668137
2000.9420340676843 0.9999923954983408
2000.9440350107188 0.9999846291188079
2000.9460359557547 0.9999745092147008
2000.9480369027913 0.9999648347963896
2000.9500378518283 0.9999566402288661
2000.9520388028668 0.9999496610965839
2000.9540397559056 0.9999448062155246
2000.9560407109461 0.9999443980587666
2000.9580416679873 0.9999494240943598
2000.9600426270292 0.9999575170033298
2000.962043588072 0.9999647550897983
2000.9640445511163 0.9999698668433328
2000.966045516161 0.9999741593913953
2000.9680464832072 0.9999776148580289
2000.9700474522538 0.9999777920875327
2000.9720484233017 0.9999731165465742
2000.9740493963504 0.9999661979629222
2000.9760503713999 0.9999614831986433
2000.9780513484511 0.9999604686497309
2000.9800523275028 0.9999606220790529
2000.9820533085556 0.9999584361258588
2000.9840542916097 0.9999532621737651
2000.9860552766643 0.9999463385526434
2000.9880562637197 0.9999378686854387
2000.9900572527768 0.9999286579517337
2000.992058243834 0.999921739299257
2000.9940592368928 0.9999195272637971
2000.996060231953 0.999921451174968
2000.9980612290135 0.9999245967821534
2001.0000622280747 0.9999270360258954
2001.0020632291375 0.9999283766631066
2001.004064232201 0.9999258433041093
2001.0060652372658 0.9999165785138093
2001.0080662443318 0.9999041534245106
2001.0100672533981 0.9998946287872934
2001.0120682644658 0.9998913312298703
2001.0140692775344 0.9998950190252401
2001.0160702926044 0.9999051623325286
2001.018071309675 0.999920087563495
2001.0200723287464 0.9999358235305376
2001.0220733498195 0.9999469739134998
2001.0240743728934 0.9999513955302818
2001.0260753979683 0.999950769392873
2001.0280764250442 0.9999465129597663
2001.0300774541208 0.9999365458605914
2001.0320784851986 0.9999134410600822
2001.0340795182774 0.9998769967727384
2001.0360805533578 0.9998417028407085
2001.0380815904384 0.9998140476898759
2001.0400826295206 0.9997939384811544
2001.0420836706037 0.9997791467492526
2001.0440847136879 0.9997642284387857
2001.046085758773 0.9997444328838936
2001.0480868058594 0.9997258126261318
2001.0500878549465 0.9997187227082805
2001.052088906035 0.9997276590707561
2001.054089959124 0.9997529836407791
