Atmospheric Species: CO
Metallicity: 10
C/O_Ratio: 0.5
Wavelength[nm] Flux_variation
1699.999720594985 1.0
1700.0014205955558 0.999999999479251
1700.003120597826 0.9999999989582249
1700.0048206017968 0.9999999984368784
1700.0065206074676 0.9999999979151499
1700.0082206148381 0.9999999973929508
1700.0099206239088 0.9999999968701495
1700.0116206346793 0.9999999963465518
1700.0133206471498 0.9999999958218532
1700.0150206613202 0.9999999952955533
1700.016720677191 0.9999999947667436
1700.0184206947615 0.9999999942334589
1700.020120714032 0.9999999936906296
1700.0218207350024 0.9999999931246966
1700.0235207576732 0.9999999925046873
1700.025220782044 0.999999991781503
1700.0269208081147 0.9999999909250663
1700.0286208358855 0.9999999900033926
1700.0303208653559 0.9999999892081248
1700.032020896527 0.9999999887160702
1700.0337209293978 0.9999999885068911
1700.0354209639686 0.9999999883856661
1700.0371210002395 0.9999999881772113
1700.0388210382105 0.9999999878360901
1700.0405210778813 0.9999999874007789
1700.0422211192524 0.9999999869183969
1700.0439211623234 0.9999999864162773
1700.0456212070944 0.9999999859059026
1700.0473212535655 0.9999999853915331
1700.0490213017365 0.9999999848748607
1700.050721351608 0.9999999843566958
1700.0524214031793 0.9999999838374954
1700.0541214564507 0.9999999833175394
1700.0558215114222 0.9999999827970114
1700.0575215680938 0.9999999822760347
1700.0592216264656 0.9999999817546943
1700.0609216865369 0.9999999812330505
1700.0626217483084 0.9999999807111468
1700.0643218117798 0.9999999801890146
1700.0660218769517 0.9999999796666772
1700.0677219438237 0.9999999791441518
1700.0694220123955 0.9999999786214508
1700.0711220826677 0.9999999780985834
1700.0728221546399 0.999999977575556
1700.0745222283117 0.999999977052373
1700.0762223036838 0.9999999765290368
1700.0779223807563 0.9999999760055489
1700.0796224595285 0.9999999754819089
1700.081322540001 0.9999999749581158
1700.0830226221735 0.9999999744341672
1700.084722706046 0.99999997391006
1700.0864227916188 0.9999999733857903
1700.0881228788917 0.999999972861354
1700.0898229678646 0.9999999723367478
1700.0915230585374 0.9999999718119663
1700.0932231509105 0.9999999712870032
1700.0949232449836 0.9999999707618489
1700.0966233407569 0.9999999702364937
1700.0983234382302 0.9999999697109271
1700.1000235374036 0.9999999691851376
1700.101723638277 0.999999968659115
1700.1034237408508 0.9999999681328452
1700.1051238451244 0.9999999676063135
1700.106823951098 0.9999999670795024
1700.108524058772 0.9999999665523933
1700.1102241681463 0.9999999660249643
1700.1119242792201 0.9999999654971908
1700.1136243919946 0.9999999649690452
1700.1153245064686 0.9999999644404954
1700.1170246226434 0.9999999639115046
1700.118724740518 0.9999999633820301
1700.1204248600927 0.9999999628520221
1700.1221249813675 0.9999999623214215
1700.1238251043426 0.9999999617901592
1700.1255252290177 0.9999999612581515
1700.1272253553927 0.9999999607252982
1700.1289254834683 0.9999999601914766
1700.1306256132436 0.9999999596565354
1700.1323257447189 0.9999999591202849
1700.134025877895 0.9999999585824852
1700.1357260127709 0.9999999580428265
1700.137426149347 0.9999999575009075
1700.1391262876232 0.9999999569561897
1700.1408264275992 0.9999999564079415
1700.1425265692758 0.9999999558551486
1700.1442267126522 0.9999999552963597
1700.1459268577291 0.9999999547294343
1700.147627004506 0.9999999541510963
1700.149327152983 0.9999999535559163
1700.1510273031602 0.9999999529335906
1700.1527274550374 0.9999999522603
1700.154427608615 0.9999999514743177
1700.1561277638923 0.9999999504277702
1700.1578279208704 0.9999999488507041
1700.1595280795482 0.9999999464626542
1700.1612282399262 0.9999999433461096
1700.1629284020044 0.9999999403207216
1700.1646285657832 0.9999999386466843
1700.1663287312617 0.9999999389971787
1700.1680288984403 0.9999999408060908
1700.169729067319 0.9999999428371311
1700.171429237898 0.999999944213546
1700.1731294101774 0.9999999447797815
1700.174829584157 0.9999999447766351
1700.1765297598363 0.9999999444700811
1700.1782299372162 0.9999999440146953
1700.1799301162962 0.999999943463711
1700.1816302970763 0.9999999428037291
1700.1833304795568 0.9999999419929904
1700.1850306637373 0.9999999410243728
1700.186730849618 0.9999999399841566
1700.1884310371988 0.9999999389996486
1700.1901312264797 0.9999999380456787
1700.1918314174611 0.9999999368179545
1700.1935316101426 0.9999999349388118
1700.1952318045244 0.9999999324343777
1700.196932000606 0.9999999300264484
1700.1986321983882 0.9999999287538658
1700.2003323978704 0.9999999291141988
1700.202032599053 0.999999930617635
1700.2037328019355 0.9999999322688727
1700.2054330065184 0.9999999333626789
1700.2071332128014 0.9999999337709536
1700.208833420785 0.9999999336947509
1700.210533630468 0.9999999333608054
1700.2122338418515 0.9999999329045803
1700.2139340549356 0.9999999323849227
1700.2156342697199 0.9999999318197099
1700.2173344862042 0.9999999312026305
1700.2190347043886 0.9999999305052661
1700.2207349242735 0.9999999296907909
1700.2224351458585 0.9999999287672618
1700.2241353691436 0.9999999278475544
1700.2258355941292 0.9999999271004478
1700.2275358208146 0.9999999265846292
1700.2292360492004 0.9999999261753155
1700.2309362792867 0.999999925692895
1700.232636511073 0.9999999250497593
1700.2343367445594 0.9999999242660358
1700.236036979746 0.9999999234142458
1700.2377372166331 0.9999999225649124
1700.2394374552205 0.9999999217435982
1700.241137695508 0.9999999209184847
1700.2428379374958 0.9999999200322776
1700.2445381811838 0.999999919042746
1700.246238426572 0.9999999179326291
1700.2479386736607 0.9999999166936246
1700.2496389224493 0.9999999153104747
1700.2513391729383 0.9999999137546149
1700.2530394251273 0.9999999119822238
1700.2547396790171 0.9999999099306802
1700.2564399346068 0.99999990751132
1700.2581401918967 0.9999999045948805
1700.2598404508867 0.99999990099097
1700.2615407115777 0.9999998964017472
1700.263240973968 0.9999998903341584
1700.2649412380592 0.999999881875378
1700.2666415038505 0.9999998690325496
1700.2683417713422 0.9999998468083791
1700.2700420405338 0.9999998026939918
1700.2717423114264 0.9999997105168879
1700.2734425840185 0.999999533357278
1700.275142858311 0.999999255350529
1700.276843134304 0.9999989343227199
1700.2785434119971 0.9999987067656221
1700.2802436913905 0.9999986972289708
1700.2819439724844 0.9999989114629539
1700.2836442552784 0.9999992309132903
1700.2853445397727 0.9999995151122966
1700.2870448259675 0.9999996987323869
1700.2887451138624 0.9999997941597883
1700.2904454034576 0.9999998389124349
1700.2921456947531 0.9999998606311097
1700.2938459877491 0.9999998726313452
1700.2955462824452 0.9999998801606114
1700.2972465788416 0.9999998852637052
1700.2989468769385 0.9999998888660152
1700.3006471767358 0.9999998914677778
1700.3023474782328 0.9999998933720475
1700.3040477814307 0.9999998947726143
1700.3057480863285 0.9999998958012608
1700.3074483929267 0.9999998965485072
1700.3091487012252 0.9999998970789354
1700.3108490112243 0.9999998974394715
1700.3125493229234 0.9999998976649387
1700.3142496363225 0.9999998977816359
1700.3159499514227 0.9999998978097383
1700.3176502682227 0.9999998977649273
1700.3193505867227 0.9999998976595499
1700.3210509069238 0.9999998975034328
1700.3227512288247 0.9999998973044731
1700.324451552426 0.9999998970690863
1700.3261518777274 0.9999998968025108
1700.3278522047294 0.9999998965090816
1700.3295525334318 0.99999989619238
1700.3312528638346 0.9999998958554107
1700.3329531959375 0.9999998955006928
1700.334653529741 0.9999998951303533
1700.3363538652445 0.9999998947462081
1700.3380542024483 0.9999998943497631
1700.3397545413527 0.9999998939423409
1700.3414548819576 0.9999998935250614
1700.3431552242623 0.9999998930988635
1700.3448555682678 0.9999998926645528
1700.3465559139734 0.9999998922228069
1700.3482562613794 0.9999998917742335
1700.3499566104858 0.9999998913191422
1700.3516569612923 0.9999998908579304
1700.3533573137995 0.9999998903907567
1700.355057668007 0.9999998899176672
1700.3567580239148 0.9999998894384956
1700.358458381523 0.9999998889528099
1700.360158740831 0.9999998884597668
1700.3618591018403 0.9999998879578557
1700.3635594645496 0.9999998874442846
1700.365259828959 0.9999998869132246
1700.366960195069 0.9999998863504643
1700.3686605628795 0.9999998857198718
1700.37036093239 0.9999998849415282
1700.372061303601 0.9999998838875571
1700.3737616765122 0.999999882453125
1700.3754620511243 0.9999998806967153
1700.3771624274364 0.9999998788699621
1700.378862805449 0.9999998772275503
1700.380563185162 0.9999998759505282
1700.3822635665754 0.9999998753532928
1700.383963949689 0.9999998757540975
1700.385664334503 0.9999998769258105
1700.3873647210175 0.9999998781289087
1700.3890651092324 0.9999998788113423
1700.3907654991474 0.9999998789381848
1700.392465890763 0.9999998787247634
1700.3941662840791 0.9999998783573931
1700.3958666790954 0.9999998779269251
1700.3975670758123 0.9999998774678497
1700.3992674742296 0.9999998769930276
1700.400967874347 0.9999998765081127
1700.402668276165 0.9999998760161666
1700.4043686796833 0.9999998755190663
1700.4060690849024 0.9999998750180417
1700.4077694918215 0.999999874513931
1700.409469900441 0.9999998740073176
1700.4111703107612 0.9999998734986145
1700.4128707227815 0.9999998729881138
1700.4145711365024 0.9999998724760155
1700.4162715519237 0.9999998719624437
1700.4179719690453 0.9999998714474471
1700.4196723878674 0.999999870930975
1700.4213728083898 0.9999998704127865
1700.423073230613 0.99999986989214
1700.4247736545362 0.9999998693669752
1700.42647408016 0.9999998688326172
1700.4281745074843 0.9999998682818522
1700.429874936509 0.9999998677103719
1700.431575367234 0.9999998671274447
1700.4332757996597 0.9999998665593902
1700.4349762337856 0.999999866032232
1700.436676669612 0.9999998655469738
1700.4383771071389 0.9999998650780901
1700.4400775463664 0.9999998645970725
1700.4417779872938 0.9999998640907162
1700.4434784299222 0.9999998635570136
1700.4451788742506 0.9999998629889646
1700.4468793202798 0.9999998623601913
1700.448579768009 0.9999998616255613
1700.450280217439 0.9999998607591988
1700.4519806685694 0.9999998598265597
1700.4536811214002 0.9999998590064741
1700.4553815759316 0.9999998584721655
1700.4570820321633 0.9999998582258844
1700.4587824900957 0.9999998580961449
1700.4604829497282 0.9999998579016826
1700.4621834110615 0.9999998575742645
1700.4638838740948 0.9999998571395808
1700.4655843388289 0.9999998566452161
1700.4672848052635 0.9999998561225609
1700.4689852733984 0.9999998555854674
1700.4706857432336 0.9999998550387583
1700.4723862147698 0.9999998544837105
1700.4740866880059 0.9999998539201282
1700.475787162943 0.999999853346982
1700.4774876395804 0.9999998527625805
1700.479188117918 0.9999998521645103
1700.4808885979564 0.9999998515493831
1700.4825890796951 0.9999998509124199
1700.4842895631343 0.9999998502468148
1700.4859900482743 0.9999998495426222
1700.4876905351143 0.9999998487851102
1700.489391023655 0.9999998479513305
1700.4910915138962 0.9999998470036561
1700.492792005838 0.9999998458736861
1700.4944924994802 0.9999998444128417
1700.4961929948229 0.9999998422323577
1700.4978934918663 0.9999998382745654
1700.4995939906096 0.9999998301018965
1700.5012944910538 0.9999998139149276
1700.5029949931984 0.9999997877715973
1700.5046954970437 0.9999997579278396
1700.5063960025893 0.9999997397154908
1700.5080965098355 0.9999997451936944
1700.5097970187821 0.9999997700728988
1700.5114975294293 0.999999798584052
1700.5131980417773 0.9999998190236444
1700.5148985558253 0.9999998298277066
1700.516599071574 0.9999998345147022
1700.5182995890234 0.9999998363711373
1700.5200001081735 0.9999998370843024
1700.5217006290236 0.9999998373133941
1700.5234011515745 0.9999998372991639
1700.5251016758257 0.9999998371413183
1700.5268022017776 0.9999998368903081
1700.52850272943 0.9999998365755819
1700.530203258783 0.9999998362155658
1700.5319037898366 0.9999998358225198
1700.5336043225902 0.9999998354047674
1700.5353048570453 0.9999998349681474
1700.5370053932002 0.9999998345168645
1700.5387059310556 0.9999998340540036
1700.540406470612 0.9999998335818728
1700.5421070118687 0.9999998331022273
1700.543807554826 0.9999998326164206
1700.545508099484 0.9999998321255108
1700.547208645842 0.9999998316303347
1700.5489091939007 0.9999998311315605
1700.55060974366 0.999999830629728
1700.55231029512 0.9999998301252756
1700.5540108482805 0.9999998296185637
1700.5557114031415 0.9999998291098895
1700.5574119597031 0.9999998285995007
1700.5591125179653 0.999999828087604
1700.560813077928 0.9999998275743739
1700.5625136395913 0.9999998270599597
1700.5642142029553 0.9999998265444813
1700.5659147680199 0.9999998260280479
1700.567615334785 0.9999998255107512
1700.5693159032505 0.999999824992667
1700.5710164734166 0.9999998244738634
1700.5727170452838 0.9999998239544009
1700.5744176188507 0.9999998234343201
1700.5761181941186 0.9999998229136673
1700.5778187710873 0.9999998223924776
1700.579519349756 0.9999998218707788
1700.5812199301258 0.9999998213485948
1700.5829205121959 0.9999998208259432
1700.5846210959667 0.9999998203028359
1700.586321681438 0.9999998197792774
1700.5880222686098 0.9999998192552645
1700.5897228574827 0.9999998187307825
1700.5914234480554 0.9999998182057992
1700.593124040329 0.9999998176802506
1700.5948246343032 0.9999998171539982
1700.596525229978 0.9999998166266897
1700.5982258273534 0.9999998160973719
1700.5999264264299 0.9999998155637793
1700.6016270272064 0.9999998150220716
1700.6033276296837 0.9999998144693649
1700.6050282338615 0.9999998139100462
1700.60672883974 0.9999998133589062
1700.6084294473192 0.9999998128310207
1700.6101300565986 0.9999998123261834
1700.611830667579 0.9999998118291187
1700.6135312802598 0.9999998113251534
1700.615231894641 0.9999998108100674
1700.6169325107235 0.9999998102867738
1700.618633128506 0.9999998097590458
1700.6203337479897 0.9999998092290628
1700.6220343691734 0.9999998086976986
1700.6237349920582 0.9999998081652277
1700.6254356166435 0.9999998076317024
1700.6271362429293 0.9999998070970845
1700.6288368709156 0.9999998065612817
1700.6305375006027 0.9999998060241547
1700.63223813199 0.9999998054855128
1700.633938765079 0.9999998049451019
1700.6356393998678 0.9999998044025855
1700.6373400363575 0.9999998038575146
1700.6390406745477 0.9999998033092801
1700.6407413144386 0.9999998027570445
1700.6424419560303 0.999999802199623
1700.6441425993223 0.9999998016352939
1700.6458432443155 0.999999801061483
1700.6475438910088 0.9999998004740926
1700.6492445394028 0.9999997998659433
1700.6509451894979 0.9999997992219981
1700.6526458412934 0.9999997985046367
1700.6543464947895 0.999999797617539
1700.656047149986 0.9999997963537642
1700.6577478068834 0.9999997944102419
1700.6594484654815 0.9999997916287447
1700.6611491257802 0.9999997884382833
1700.6628497877796 0.9999997859761814
1700.6645504514797 0.9999997853482993
1700.6662511168802 0.9999997866044756
1700.6679517839818 0.9999997886888841
1700.6696524527838 0.9999997904310921
1700.6713531232863 0.9999997913429493
1700.6730537954897 0.9999997915523863
1700.6747544693937 0.9999997913622765
1700.6764551449987 0.9999997909887508
1700.678155822304 0.9999997905347557
1700.67985650131 0.9999997900406697
1700.6815571820168 0.999999789522233
1700.6832578644241 0.99999978898669
1700.6849585485324 0.9999997884378098
1700.6866592343413 0.9999997878777294
1700.6883599218506 0.9999997873076335
1700.690060611061 0.999999786728057
1700.6917613019718 0.9999997861390761
1700.693461994583 0.9999997855404007
1700.6951626888956 0.9999997849314279
1700.6968633849087 0.9999997843112162
1700.6985640826222 0.9999997836784171
1700.7002647820368 0.9999997830310895
1700.7019654831518 0.999999782366547
1700.7036661859677 0.9999997816816305
1700.7053668904841 0.9999997809738421
1700.7070675967013 0.9999997802423559
1700.7087683046193 0.9999997794865821
1700.710469014238 0.9999997787024261
1700.7121697255573 0.9999997778803471
1700.7138704385775 0.9999997770074424
1700.715571153298 0.999999776069853
1700.7172718697195 0.9999997750520829
1700.7189725878418 0.9999997739337795
1700.7206733076644 0.9999997726856648
1700.7223740291881 0.9999997712645623
1700.7240747524124 0.9999997696073114
1700.7257754773375 0.9999997676227428
1700.7274762039633 0.9999997651681584
1700.72917693229 0.9999997619606471
1700.730877662317 0.9999997573329238
1700.732578394045 0.999999749839688
1700.7342791274737 0.999999737129611
1700.735979862603 0.9999997168724187
1700.7376805994334 0.9999996880815678
1700.7393813379642 0.9999996491149792
1700.7410820781959 0.9999995919654159
1700.7427828201282 0.9999995049915681
1700.7444835637614 0.9999993936710517
1700.7461843090953 0.9999992978458527
1700.74788505613 0.9999992707736863
1700.749585804865 0.9999993326112437
1700.7512865553015 0.9999994509190976
1700.7529873074382 0.9999995705242465
1700.7546880612758 0.9999996560702555
1700.7563888168143 0.9999997043159561
1700.7580895740532 0.9999997280342914
1700.7597903329931 0.9999997395620691
1700.7614910936338 0.9999997457382876
1700.7631918559753 0.99999974945207
1700.7648926200177 0.9999997518180587
1700.7665933857602 0.9999997533297514
1700.7682941532041 0.9999997543093153
1700.7699949223486 0.9999997550227028
1700.7716956931938 0.9999997556266996
1700.7733964657398 0.9999997561297126
1700.7750972399867 0.9999997564729524
1700.7767980159342 0.9999997566352358
1700.7784987935825 0.9999997566480328
1700.7801995729317 0.9999997565556694
1700.7819003539817 0.999999756390396
1700.7836011367324 0.9999997561712598
1700.7853019211836 0.9999997559097774
1700.787002707336 0.9999997556137813
1700.7887034951889 0.9999997552891248
1700.790404284743 0.9999997549403816
1700.7921050759976 0.9999997545712042
1700.7938058689529 0.9999997541845597
1700.795506663609 0.9999997537828658
1700.797207459966 0.9999997533681213
1700.798908258024 0.9999997529419777
1700.8006090577826 0.9999997525058089
1700.8023098592419 0.9999997520607726
1700.804010662402 0.9999997516078728
1700.805711467263 0.999999751147982
1700.8074122738249 0.9999997506818549
1700.8091130820876 0.9999997502100859
1700.810813892051 0.9999997497331181
1700.8125147037154 0.9999997492512926
1700.8142155170804 0.9999997487649342
1700.8159163321461 0.9999997482741906
1700.8176171489126 0.9999997477792611
1700.8193179673801 0.9999997472801935
1700.8210187875484 0.9999997467768965
1700.8227196094176 0.9999997462690463
1700.8244204329876 0.9999997457559574
1700.8261212582584 0.9999997452360035
1700.82782208523 0.9999997447048434
1700.8295229139026 0.9999997441507205
1700.831223744276 0.9999997435471264
1700.83292457635 0.9999997428548195
1700.8346254101252 0.9999997420590412
1700.836326245601 0.9999997412349392
1700.8380270827777 0.999999740544077
1700.8397279216554 0.9999997400948817
1700.8414287622338 0.9999997398207728
1700.843129604513 0.9999997395550526
1700.844830448493 0.999999739189586
1700.846531294174 0.9999997387172027
1700.8482321415559 0.9999997381721404
1700.8499329906383 0.9999997375802271
1700.8516338414217 0.9999997374694243
1700.8533346939062 0.9999997373129178
1700.8550355480913 0.999999737092854
1700.8567364039773 0.9999997367722928
1700.8584372615642 0.9999997362642292
1700.8601381208518 0.9999997353406924
1700.8618389818403 0.9999997334444551
1700.8635398445297 0.9999997295244962
1700.8652407089198 0.9999997224254142
1700.8669415750107 0.999999712382382
1700.8686424428026 0.9999997026609997
1700.8703433122955 0.9999996984367614
1700.872044183489 0.9999997024310668
1700.8737450563838 0.9999997121478501
1700.8754459309791 0.9999997224695938
1700.8771468072755 0.9999997300421992
1700.8788476852728 0.9999997344698912
1700.8805485649707 0.9999997366983159
1700.8822494463698 0.9999997376194514
1700.8839503294694 0.9999997378284117
1700.8856512142702 0.9999997377569331
1700.887352100772 0.9999997376707027
1700.8890529889745 0.9999997376540278
1700.8907538788778 0.9999997376892847
1700.8924547704821 0.9999997377427264
1700.8941556637872 0.9999997377960193
1700.8958565587932 0.9999997378430304
1700.8975574555002 0.999999737882171
