Atmospheric Species: CO
Metallicity: 100
C/O_Ratio: 1.0
Wavelength[nm] Flux_variation
2299.999916647247 0.9999991683959191
2300.0022166483136 0.9999991967874398
2300.00451665168 0.9999992244352298
2300.006816657347 0.9999992513591613
2300.0091166653133 0.9999992775779436
2300.0114166755798 0.9999993031106432
2300.0137166881464 0.9999993279736923
2300.016016703013 0.9999993521846952
2300.0183167201794 0.9999993757596327
2300.0206167396464 0.9999993987137579
2300.022916761413 0.9999994210627376
2300.0252167854796 0.9999994428205469
2300.0275168118465 0.9999994640012118
2300.0298168405134 0.999999484618331
2300.03211687148 0.9999995046847195
2300.0344169047466 0.9999995242128795
2300.0367169403135 0.9999995432148211
2300.0390169781804 0.9999995617019697
2300.0413170183474 0.9999995796857889
2300.043617060814 0.9999995971767971
2300.0459171055813 0.9999996141859122
2300.0482171526482 0.9999996307222603
2300.0505172020153 0.9999996467960499
2300.0528172536824 0.9999996624169118
2300.0551173076497 0.9999996775930603
2300.057417363917 0.9999996923337446
2300.059717422484 0.9999997066472307
2300.0620174833516 0.999999720541661
2300.0643175465193 0.9999997340246121
2300.0666176119867 0.9999997471034583
2300.068917679754 0.9999997597862549
2300.0712177498217 0.9999997720789887
2300.0735178221894 0.9999997839892554
2300.075817896857 0.9999997955229329
2300.078117973825 0.9999998066866654
2300.080418053093 0.9999998174863085
2300.0827181346613 0.9999998279280932
2300.0850182185295 0.999999838016999
2300.0873183046974 0.9999998477587432
2300.0896183931654 0.9999998571589559
2300.091918483934 0.999999866222115
2300.0942185770023 0.9999998749532143
2300.096518672371 0.9999998833570988
2300.09881877004 0.9999998914381183
2300.1011188700086 0.9999998992003969
2300.1034189722773 0.999999906648123
2300.105719076846 0.9999999137855462
2300.108019183715 0.9999999206163152
2300.110319292884 0.9999999271441529
2300.1126194043536 0.9999999333725972
2300.114919518123 0.9999999393047977
2300.1172196341927 0.9999999449440867
2300.119519752562 0.9999999502934043
2300.121819873232 0.9999999553561347
2300.124119996202 0.9999999601345114
2300.126420121472 0.9999999646316046
2300.128720249042 0.999999968849793
2300.131020378912 0.9999999727913029
2300.1333205110823 0.9999999764589099
2300.135620645553 0.9999999798540632
2300.1379207823234 0.9999999829794701
2300.140220921394 0.9999999858367997
2300.142521062765 0.9999999884274816
2300.144821206436 0.9999999907537047
2300.1471213524073 0.9999999928166801
2300.1494215006787 0.999999994618136
2300.15172165125 0.9999999961591952
2300.154021804122 0.9999999974412821
2300.1563219592936 0.9999999984654317
2300.158622116766 0.9999999992323336
2300.160922276538 0.9999999997433008
2300.1632224386103 0.9999999999991636
2300.1655226029825 1.0
2300.1678227696552 0.9999999997471292
2300.1701229386276 0.9999999992405906
2300.1724231099006 0.9999999984808087
2300.174723283474 0.9999999974682127
2300.1770234593473 0.9999999962027887
2300.1793236375206 0.9999999946846
2300.1816238179945 0.9999999929137114
2300.183924000768 0.9999999908901438
2300.186224185842 0.9999999886131617
2300.1885243732163 0.9999999860828285
2300.1908245628906 0.999999983298541
2300.1931247548655 0.9999999802596092
2300.19542494914 0.9999999769654592
2300.197725145715 0.9999999734153104
2300.2000253445904 0.9999999696084051
2300.2023255457657 0.9999999655435818
2300.204625749241 0.999999961219847
2300.2069259550167 0.9999999566357892
2300.209226163093 0.9999999517904337
2300.211526373469 0.9999999466820924
2300.2138265861454 0.9999999413094642
2300.216126801122 0.9999999356705995
2300.218427018399 0.999999929763943
2300.220727237976 0.9999999235877615
2300.2230274598533 0.9999999171396279
2300.2253276840306 0.9999999104178046
2300.2276279105085 0.9999999034198389
2300.2299281392866 0.9999998961435913
2300.2322283703647 0.9999998885863455
2300.234528603743 0.9999998807455825
2300.236828839422 0.9999998726185889
2300.239129077401 0.9999998642022834
2300.24142931768 0.9999998554943113
2300.243729560259 0.9999998464907045
2300.2460298051387 0.9999998371886041
2300.2483300523186 0.9999998275846189
2300.2506303017985 0.9999998176749678
2300.252930553579 0.9999998074561274
2300.2552308076597 0.9999997969241233
2300.2575310640404 0.9999997860747593
2300.2598313227218 0.9999997749042056
2300.2621315837027 0.9999997634077348
2300.2644318469847 0.9999997515809742
2300.2667321125664 0.9999997394190736
2300.2690323804486 0.9999997269174634
2300.271332650631 0.9999997140707496
2300.273632923114 0.999999700873773
2300.275933197897 0.9999996873211959
2300.27823347498 0.9999996734071276
2300.2805337543637 0.9999996591259507
2300.2828340360475 0.9999996444711056
2300.2851343200314 0.9999996294370166
2300.287434606316 0.9999996140164849
2300.2897348949004 0.9999995982030402
2300.2920351857856 0.9999995819897313
2300.294335478971 0.999999565368993
2300.2966357744563 0.9999995483335327
2300.298936072242 0.9999995308751074
2300.3012363723283 0.9999995129866476
2300.303536674715 0.9999994946586579
2300.3058369794016 0.999999475883162
2300.3081372863885 0.9999994566509047
2300.310437595676 0.9999994369527018
2300.3127379072635 0.999999416778755
2300.3150382211516 0.9999993961193203
2300.3173385373398 0.9999993749640343
2300.319638855828 0.9999993533016948
2300.321939176617 0.9999993311218273
2300.3242394997064 0.9999993084126175
2300.326539825096 0.9999992851620683
2300.328840152786 0.9999992613578425
2300.3311404827764 0.9999992369870866
2300.3334408150668 0.9999992120367701
2300.3357411496577 0.9999991864928927
2300.3380414865487 0.9999991603411733
2300.3403418257403 0.9999991335668621
2300.3426421672325 0.9999991061541444
2300.344942511025 0.9999990780878203
2300.347242857117 0.9999990493499894
2300.34954320551 0.9999990199247087
2300.351843556203 0.9999989897939218
2300.3541439091973 0.9999989589380639
2300.356444264491 0.9999989273387878
2300.3587446220854 0.9999988949758878
2300.36104498198 0.9999988618274842
2300.3633453441753 0.9999988278732276
2300.365645708671 0.9999987930898547
2300.3679460754665 0.9999987574537872
2300.370246444563 0.9999987209401013
2300.372546815959 0.9999986835241051
2300.374847189656 0.9999986451785595
2300.377147565653 0.9999986058760325
2300.379447943951 0.999998565586843
2300.381748324549 0.9999985242814158
2300.3840487074476 0.999998481927689
2300.3863490926465 0.9999984384924062
2300.388649480146 0.9999983939405791
2300.3909498699454 0.9999983482363288
2300.393250262045 0.9999983013409958
2300.3955506564457 0.9999982532146731
2300.397851053146 0.9999982038151198
2300.4001514521474 0.9999981530972603
2300.402451853449 0.9999981010153555
2300.4047522570504 0.9999980475190585
2300.407052662953 0.9999979925564711
2300.4093530711557 0.9999979360720178
2300.4116534816585 0.9999978780070508
2300.4139538944623 0.9999978183004575
2300.416254309566 0.9999977568858008
2300.4185547269703 0.9999976936926872
2300.420855146675 0.9999976286482387
2300.4231555686806 0.9999975616726577
2300.4254559929864 0.9999974926823637
2300.4277564195922 0.9999974215874856
2300.430056848499 0.999997348294013
2300.432357279706 0.9999972726999217
2300.4346577132137 0.9999971946992039
2300.4369581490214 0.9999971141770759
2300.4392585871296 0.99999703101222
2300.441559027538 0.9999969450759729
2300.4438594702474 0.9999968562321704
2300.446159915257 0.9999967643351558
2300.448460362567 0.9999966692313171
2300.4507608121776 0.9999965707566949
2300.453061264089 0.9999964687378371
2300.4553617183 0.9999963629880847
2300.4576621748115 0.9999962533083031
2300.459962633624 0.9999961394843064
2300.462263094737 0.9999960212356824
2300.46456355815 0.999995898398041
2300.4668640238638 0.9999957706491006
2300.469164491878 0.9999956376773088
2300.4714649621924 0.9999954991319034
2300.473765434808 0.9999953546088254
2300.4760659097233 0.9999952035883366
2300.4783663869393 0.9999950456821174
2300.480666866456 0.9999948801831672
2300.4829673482727 0.999994706240804
2300.4852678323905 0.9999945225189388
2300.4875683188084 0.9999943269082356
2300.489868807527 0.9999941171679149
2300.492169298546 0.999993893312884
2300.4944697918654 0.9999936591411521
2300.496770287485 0.9999934183435952
2300.499070785406 0.9999931686287152
2300.5013712856266 0.9999929027330262
2300.503671788148 0.9999926147437712
2300.50597229297 0.9999923024482831
2300.5082728000925 0.9999919646770258
2300.5105733095156 0.9999915988689502
2300.512873821239 0.9999912003903724
2300.515174335263 0.9999907624364318
2300.5174748515874 0.9999902760071049
2300.5197753702128 0.9999897297561893
2300.5220758911382 0.999989110317599
2300.5243764143643 0.9999884006833617
2300.526676939891 0.9999875725092335
2300.5289774677176 0.9999865552594296
2300.5312779978453 0.9999851191729251
2300.5335785302736 0.9999825348069827
2300.5358790650025 0.9999767057447848
2300.5381796020315 0.9999616996747938
2300.5404801413615 0.9999260514324355
2300.5427806829916 0.9998786564044113
2300.545081226923 0.9998585767558438
2300.547381773154 0.9998838172352085
2300.5496823216863 0.9999316917933483
2300.5519828725187 0.9999644471167103
2300.5542834256516 0.999977739556201
2300.556583981085 0.9999829632653893
2300.5588845388197 0.9999853357964921
2300.5611850988544 0.9999866954353641
2300.5634856611896 0.9999876821055015
2300.5657862258254 0.9999884930910441
2300.5680867927617 0.999989190282779
2300.570387361999 0.9999897997817006
2300.5726879335366 0.9999903377454751
2300.5749885073747 0.9999908174762648
2300.5772890835133 0.9999912499391655
2300.5795896619525 0.9999916439415428
2300.5818902426927 0.9999920061356113
2300.584190825733 0.9999923413928737
2300.586491411074 0.9999926532483929
2300.5887919987154 0.9999929443420347
2300.5910925886574 0.9999932167366282
2300.5933931809004 0.9999934721482455
2300.5956937754436 0.9999937120812605
2300.5979943722878 0.9999939379037444
2300.6002949714325 0.9999941508656259
2300.6025955728774 0.9999943521250972
2300.6048961766232 0.9999945427332546
2300.6071967826697 0.99999472363799
2300.6094973910167 0.9999948956891495
2300.6117980016643 0.9999950596351445
2300.6140986146124 0.9999952161360364
2300.616399229861 0.9999953658303485
2300.618699847411 0.9999955090920416
2300.6210004672607 0.9999956464214184
2300.6233010894116 0.9999957782148933
2300.625601713863 0.9999959048150396
2300.6279023406146 0.9999960265276088
2300.630202969667 0.9999961436712218
2300.6325036010203 0.9999962564084297
2300.6348042346744 0.9999963650144292
2300.6371048706287 0.9999964697032983
2300.639405508884 0.9999965706711282
2300.6417061494394 0.999996668103139
2300.644006792296 0.9999967621714143
2300.646307437453 0.9999968530386647
2300.6486080849104 0.9999969408568553
2300.650908734669 0.999997025770661
2300.6532093867277 0.9999971079151114
2300.6555100410874 0.9999971874183092
2300.6578106977477 0.9999972644002154
2300.660111356709 0.999997338973946
2300.6624120179704 0.9999974112463016
2300.664712681533 0.9999974813169937
2300.667013347396 0.9999975492805326
2300.6693140155594 0.9999976152260911
2300.6716146860235 0.9999976792358136
2300.6739153587887 0.9999977413889471
2300.676216033854 0.9999978017584599
2300.6785167112203 0.99999786041436
2300.680817390887 0.9999979174220659
2300.6831180728545 0.999997972843237
2300.6854187571225 0.9999980267366175
2300.6877194436915 0.9999980791558847
2300.6900201325616 0.9999981301543466
2300.6923208237317 0.9999981797809533
2300.6946215172034 0.9999982280823333
2300.696922212975 0.9999982751030252
2300.6992229110474 0.9999983208853409
2300.7015236114207 0.9999983654685312
2300.7038243140946 0.999998408891988
2300.706125019069 0.9999984511914584
2300.7084257263446 0.9999984924020611
2300.7107264359206 0.9999985325564628
2300.713027147797 0.9999985716864177
2300.7153278619744 0.9999986098230664
2300.7176285784526 0.9999986469947313
2300.719929297232 0.9999986832296023
2300.722230018311 0.9999987185536711
2300.7245307416915 0.9999987529938551
2300.7268314673724 0.9999987865740706
2300.729132195354 0.99999881931767
2300.7314329256365 0.999998851247318
2300.73373365822 0.9999988823859258
2300.7360343931036 0.9999989127532122
2300.7383351302883 0.9999989423697127
2300.740635869774 0.9999989712550563
2300.7429366115603 0.9999989994278196
2300.745237355647 0.9999990269061412
2300.7475381020345 0.9999990537071662
2300.749838850723 0.9999990798479492
2300.7521396017123 0.9999991053440089
2300.7544403550023 0.999999130211323
2300.756741110593 0.9999991544650522
2300.759041868484 0.9999991781191322
2300.761342628676 0.9999992011879418
2300.7636433911694 0.9999992236844184
2300.765944155963 0.999999245622188
2300.7682449230574 0.9999992670131932
2300.7705456924527 0.9999992878697278
2300.7728464641486 0.9999993082037345
2300.7751472381456 0.9999993280258811
2300.777448014443 0.9999993473476103
2300.7797487930416 0.9999993661794702
2300.7820495739406 0.999999384531312
2300.7843503571403 0.9999994024127008
2300.786651142641 0.9999994198337147
2300.788951930442 0.9999994368035019
2300.7912527205444 0.9999994533302375
2300.7935535129477 0.9999994694230298
2300.7958543076516 0.9999994850904139
2300.7981551046564 0.999999500339729
2300.8004559039614 0.9999995151791244
2300.802756705568 0.9999995296160017
2300.805057509475 0.9999995436576727
2300.8073583156824 0.9999995573108676
2300.809659124191 0.9999995705824302
2300.8119599350007 0.9999995834793047
2300.814260748111 0.9999995960072869
2300.816561563522 0.9999996081726119
2300.818862381234 0.9999996199813649
2300.8211632012467 0.9999996314388572
2300.82346402356 0.9999996425511491
2300.8257648481745 0.9999996533230824
2300.8280656750894 0.9999996637601529
2300.8303665043054 0.9999996738670938
2300.8326673358224 0.9999996836489092
2300.83496816964 0.9999996931100096
2300.8372690057586 0.9999997022547559
2300.8395698441777 0.9999997110877098
2300.841870684898 0.9999997196132233
2300.844171527919 0.9999997278349476
2300.846472373241 0.9999997357566316
2300.8487732208637 0.9999997433823566
2300.8510740707875 0.999999750715689
2300.853374923012 0.9999997577598744
2300.855675777537 0.9999997645183277
2300.8579766343632 0.9999997709944373
2300.8602774934902 0.9999997771909258
2300.862578354918 0.9999997831109424
2300.8648792186464 0.9999997887573431
2300.867180084676 0.9999997941327309
2300.8694809530066 0.9999997992395413
2300.871781823638 0.9999998040806918
2300.87408269657 0.9999998086581444
2300.8763835718028 0.9999998129743891
2300.878684449337 0.9999998170314284
2300.880985329172 0.999999820831333
2300.883286211307 0.999999824376232
2300.885587095744 0.9999998276678657
2300.887887982482 0.9999998307078285
2300.8901888715195 0.9999998334980387
2300.892489762859 0.9999998360397473
2300.8947906564986 0.999999838334389
2300.89709155244 0.9999998403836451
2300.899392450682 0.9999998421886417
2300.901693351225 0.9999998437503923
2300.9039942540685 0.999999845070181
2300.9062951592127 0.9999998461488158
2300.9085960666584 0.9999998469874666
2300.910896976405 0.9999998475866999
2300.9131978884525 0.9999998479470802
2300.915498802801 0.9999998480696046
2300.9177997194497 0.9999998479547557
2300.9201006383996 0.9999998476030474
2300.9224015596506 0.9999998470142392
2300.9247024832025 0.9999998461893641
2300.9270034090555 0.9999998451282124
2300.9293043372095 0.9999998438311987
2300.931605267664 0.999999842297757
2300.9339062004196 0.9999998405286816
2300.9362071354763 0.9999998385233084
2300.938508072834 0.9999998362812843
2300.9408090124925 0.9999998338026882
2300.9431099544518 0.9999998310869069
2300.9454108987125 0.9999998281333486
2300.9477118452737 0.9999998249416143
2300.950012794136 0.9999998215111149
2300.9523137452993 0.9999998178410547
2300.9546146987636 0.9999998139303939
2300.9569156545285 0.9999998097783943
2300.959216612595 0.9999998053838705
2300.961517572962 0.9999998007458316
2300.96381853563 0.9999997958632495
2300.966119500599 0.9999997907345215
2300.968420467869 0.999999785358491
2300.97072143744 0.9999997797337157
2300.9730224093114 0.9999997738582405
2300.975323383484 0.9999997677308635
2300.977624359958 0.9999997613496908
2300.9799253387328 0.9999997547128896
2300.9822263198084 0.9999997478183733
2300.984527303185 0.9999997406639235
2300.986828288863 0.9999997332478378
2300.9891292768416 0.9999997255676487
2300.991430267122 0.9999997176208895
2300.993731259702 0.9999997094049858
2300.9960322545835 0.9999997009174043
2300.9983332517663 0.999999692155671
2301.00063425125 0.9999996831168413
2301.0029352530346 0.999999673797697
2301.0052362571205 0.9999996641956339
2301.007537263507 0.9999996543071439
2301.009838272195 0.9999996441289308
2301.0121392831834 0.9999996336576432
2301.0144402964734 0.999999622889768
2301.016741312064 0.9999996118214145
2301.0190423299555 0.9999996004488498
2301.0213433501485 0.9999995887679872
2301.023644372642 0.9999995767748845
2301.0259453974368 0.9999995644647792
2301.028246424533 0.9999995518340985
2301.0305474539296 0.9999995388776635
2301.0328484856273 0.9999995255904393
2301.0351495196264 0.9999995119683723
2301.0374505559266 0.9999994980054732
2301.0397515945274 0.9999994836971248
2301.0420526354296 0.9999994690372519
2301.0443536786324 0.9999994540206798
2301.0466547241367 0.9999994386418154
2301.048955771942 0.9999994228937947
2301.0512568220483 0.9999994067709244
2301.0535578744552 0.9999993902670593
2301.0558589291636 0.9999993733750487
2301.058159986173 0.9999993560877778
2301.0604610454834 0.9999993383991326
2301.062762107095 0.9999993203007672
2301.0650631710073 0.9999993017851855
2301.067364237221 0.9999992828449077
2301.0696653057357 0.9999992634718229
2301.0719663765517 0.9999992436566792
2301.0742674496682 0.9999992233919478
2301.0765685250863 0.9999992026677735
2301.0788696028053 0.9999991814751978
2301.0811706828254 0.9999991598045659
2301.0834717651464 0.9999991376463289
2301.085772849769 0.9999991149894562
2301.088073936692 0.9999990918234544
2301.0903750259167 0.9999990681379642
2301.092676117442 0.9999990439205638
2301.0949772112685 0.9999990191601956
2301.097278307396 0.9999989938448665
2301.0995794058254 0.9999989679611305
2301.101880506555 0.9999989414962897
2301.104181609586 0.9999989144369832
2301.106482714918 0.9999988867686719
2301.1087838225512 0.9999988584775658
2301.1110849324855 0.9999988295481447
2301.1133860447208 0.9999987999643971
2301.1156871592575 0.9999987697107668
2301.117988276095 0.9999987387702295
2301.1202893952336 0.9999987071251457
2301.1225905166734 0.9999986747576939
2301.1248916404143 0.9999986416489173
2301.1271927664566 0.9999986077793027
2301.1294938948 0.999998573128555
2301.131795025444 0.9999985376755157
2301.1340961583896 0.9999985013988497
2301.136397293636 0.9999984642750116
2301.138698431184 0.999998426280347
2301.140999571033 0.9999983873901338
2301.1433007131827 0.9999983475783047
2301.145601857634 0.9999983068188179
2301.1479030043865 0.9999982650817032
2301.15020415344 0.999998222339715
2301.1525053047944 0.9999981785584459
2301.1548064584504 0.9999981337112658
2301.1571076144073 0.9999980877603872
2301.1594087726653 0.9999980406714012
2301.1617099332248 0.9999979924065869
2301.1640110960852 0.9999979429274476
2301.1663122612467 0.9999978921923419
2301.1686134287093 0.9999978401578125
2301.1709145984732 0.999997786778162
2301.1732157705383 0.9999977320063628
2301.1755169449048 0.9999976757899568
2301.1778181215723 0.9999976180766886
2301.180119300541 0.99999755880924
2301.182420481811 0.9999974979277539
2301.1847216653814 0.9999974353692234
2301.187022851254 0.9999973710665642
2301.189324039427 0.9999973049489553
2301.1916252299015 0.999997236941896
2301.1939264226776 0.9999971669658454
2301.1962276177546 0.9999970949373627
2301.1985288151327 0.9999970207679504
2301.200830014812 0.9999969443645638
2301.2031312167924 0.9999968656287199
2301.205432421074 0.9999967844559792
2301.207733627657 0.999996700736532
2301.210034836541 0.9999966143540194
2301.2123360477262 0.999996525186317
2301.214637261213 0.9999964331031774
2301.2169384770004 0.9999963379664559
2301.2192396950895 0.9999962396295655
2301.2215409154796 0.9999961379356875
