Atmospheric Species: CO2
Metallicity: 1
C/O_Ratio: 0.5
Wavelength[nm] Flux_variation
1899.9984810069718 1.0
1900.000381006403 0.9999999994764835
1900.0022810077337 0.999999998885506
1900.0041810109644 0.9999999982496717
1900.0060810160955 0.9999999977055618
1900.0079810231266 0.9999999972848905
1900.0098810320576 0.9999999968652832
1900.011781042888 0.9999999964464352
1900.0136810556194 0.9999999960753116
1900.0155810702504 0.999999995712664
1900.0174810867816 0.9999999953126972
1900.0193811052125 0.9999999948757549
1900.0212811255433 0.9999999944171084
1900.023181147774 0.999999993949936
1900.0250811719056 0.9999999934853235
1900.0269811979365 0.9999999930259135
1900.0288812258677 0.9999999925651089
1900.0307812556994 0.9999999920948591
1900.0326812874303 0.9999999916077414
1900.0345813210613 0.9999999910998536
1900.0364813565927 0.9999999905878153
1900.0383813940234 0.9999999901049563
1900.0402814333552 0.9999999896501948
1900.0421814745864 0.9999999891943393
1900.044081517718 0.9999999887267058
1900.0459815627494 0.9999999882503099
1900.047881609681 0.9999999877715015
1900.0497816585128 0.9999999872727634
1900.0516817092443 0.9999999867084195
1900.053581761876 0.9999999860977483
1900.055481816408 0.9999999855704825
1900.0573818728399 0.9999999851874931
1900.0592819311714 0.9999999848625079
1900.0611819914034 0.9999999844953812
1900.0630820535353 0.9999999840497874
1900.064982117567 0.9999999835506325
1900.0668821834988 0.9999999830581543
1900.0687822513312 0.9999999826128672
1900.0706823210633 0.9999999821920489
1900.072582392695 0.9999999817588465
1900.074482466228 0.9999999813079906
1900.0763825416605 0.9999999808453248
1900.078282618993 0.9999999803734446
1900.0801826982256 0.9999999799008128
1900.0820827793584 0.9999999794314383
1900.083982862391 0.9999999789458416
1900.085882947324 0.9999999784031409
1900.087783034157 0.9999999777484062
1900.0896831228897 0.9999999769534652
1900.091583213523 0.999999976209961
1900.0934833060562 0.999999975863568
1900.0953834004895 0.9999999757570345
1900.097283496823 0.9999999755183666
1900.0991835950563 0.9999999751005678
1900.10108369519 0.9999999745499463
1900.102983797224 0.9999999738751525
1900.1048839011573 0.9999999731379308
1900.1067840069913 0.999999972475482
1900.1086841147253 0.999999972089483
1900.1105842243594 0.9999999719702197
1900.1124843358934 0.9999999717908957
1900.1143844493279 0.9999999714512475
1900.1162845646622 0.9999999710313482
1900.1181846818968 0.9999999705841663
1900.1200848010315 0.9999999701278366
1900.1219849220663 0.9999999696718478
1900.1238850450015 0.9999999692190696
1900.1257851698363 0.9999999687648966
1900.1276852965714 0.9999999683048768
1900.1295854252066 0.9999999678394342
1900.131485555742 0.9999999673717022
1900.1333856881777 0.99999996690362
1900.135285822513 0.9999999664327982
1900.137185958749 0.9999999659503285
1900.139086096885 0.9999999654350723
1900.1409862369208 0.9999999648500416
1900.1428863788572 0.9999999642124436
1900.1447865226937 0.999999963699604
1900.1466866684302 0.9999999633704056
1900.1485868160669 0.9999999630420573
1900.1504869656035 0.9999999626433346
1900.1523871170407 0.9999999622073952
1900.1542872703776 0.9999999617581588
1900.156187425615 0.999999961303074
1900.1580875827522 0.9999999608435753
1900.1599877417898 0.9999999603800277
1900.1618879027278 0.9999999599139997
1900.1637880655658 0.999999959447532
1900.1656882303037 0.9999999589807591
1900.1675883969422 0.999999958511679
1900.1694885654808 0.999999958037594
1900.171388735919 0.9999999575567898
1900.1732889082577 0.9999999570724148
1900.1751890824967 0.9999999565922046
1900.1770892586358 0.9999999561189121
1900.1789894366752 0.999999955648698
1900.1808896166144 0.9999999551762645
1900.1827897984542 0.9999999546849411
1900.184689982194 0.9999999541364822
1900.1865901678336 0.9999999534953694
1900.1884903553741 0.9999999528161183
1900.1903905448146 0.9999999522816154
1900.1922907361552 0.9999999519682014
1900.194190929396 0.9999999517136025
1900.196091124537 0.9999999513807059
1900.1979913215782 0.9999999509682982
1900.1998915205195 0.999999950512634
1900.2017917213611 0.9999999500243838
1900.2036919241027 0.9999999494851144
1900.205592128745 0.9999999488813012
1900.2074923352868 0.9999999482977127
1900.2093925437296 0.9999999478773235
1900.2112927540722 0.9999999475608495
1900.213192966315 0.9999999472038543
1900.2150931804579 0.999999946785205
1900.2169933965013 0.9999999463397624
1900.2188936144446 0.9999999458869752
1900.2207938342883 0.9999999454298567
1900.2226940560322 0.9999999449699911
1900.2245942796767 0.9999999445083004
1900.2264945052207 0.9999999440443799
1900.2283947326653 0.999999943577526
1900.23029496201 0.9999999431072812
1900.232195193255 0.9999999426331564
1900.2340954264 0.9999999421536305
1900.2359956614453 0.9999999416658535
1900.2378958983913 0.9999999411735975
1900.239796137237 0.9999999406971786
1900.241696377983 0.999999940247718
1900.2435966206301 0.999999939805124
1900.2454968651762 0.9999999393523877
1900.2473971116235 0.9999999388907435
1900.2492973599706 0.9999999384256091
1900.251197610218 0.9999999379597583
1900.2530978623654 0.9999999374932123
1900.2549981164138 0.9999999370240995
1900.256898372362 0.9999999365508244
1900.25879863021 0.9999999360709292
1900.260698889959 0.9999999355742257
1900.262599151608 0.9999999350355482
1900.2644994151574 0.9999999344173433
1900.2663996806068 0.9999999337171683
1900.2682999479562 0.9999999330771262
1900.270200217206 0.9999999326752051
1900.2721004883565 0.9999999324092703
1900.274000761407 0.9999999321065716
1900.2759010363577 0.999999931749003
1900.2778013132095 0.9999999313527116
1900.2797015919602 0.9999999309216766
1900.281601872612 0.9999999304659571
1900.283502155164 0.9999999299991181
1900.2854024396163 0.9999999295311005
1900.2873027259686 0.999999929066159
1900.2892030142214 0.9999999286041907
1900.291103304375 0.999999928142986
1900.293003596428 0.999999927679654
1900.2949038903816 0.999999927212107
1900.2968041862352 0.9999999267395058
1900.2987044839895 0.9999999262617926
1900.3006047836443 0.999999925779307
1900.3025050851993 0.9999999252867084
1900.3044053886542 0.9999999247601637
1900.3063056940098 0.9999999241497953
1900.308206001266 0.9999999234201397
1900.3101063104218 0.9999999226613712
1900.312006621478 0.9999999220602178
1900.313906934435 0.9999999216623273
1900.3158072492918 0.9999999214130476
1900.3177075660494 0.9999999212181082
1900.3196078847066 0.9999999209361828
1900.3215082052643 0.9999999205370095
1900.3234085277227 0.9999999200435653
1900.3253088520814 0.9999999194536358
1900.3272091783404 0.9999999188565696
1900.3291095064997 0.9999999184411735
1900.3310098365591 0.9999999181474515
1900.3329101685192 0.9999999178037873
1900.3348105023795 0.9999999173923931
1900.33671083814 0.9999999169475828
1900.338611175801 0.9999999164895386
1900.3405115153623 0.999999916026257
1900.342411856824 0.9999999155613093
1900.3443122001859 0.9999999150962795
1900.346212545448 0.999999914631153
1900.3481128926107 0.9999999141659023
1900.3500132416737 0.9999999137004836
1900.351913592637 0.9999999132336594
1900.3538139455006 0.9999999127629702
1900.3557143002645 0.9999999122850513
1900.3576146569287 0.9999999117978327
1900.3595150154933 0.9999999113083794
1900.3614153759586 0.9999999108343697
1900.3633157383242 0.9999999103826049
1900.3652161025902 0.9999999099376622
1900.3671164687564 0.9999999094846064
1900.369016836823 0.9999999090219394
1900.37091720679 0.9999999085523246
1900.372817578657 0.9999999080764705
1900.374717952425 0.999999907596382
1900.376618328093 0.9999999071191294
1900.3785187056617 0.9999999066511409
1900.3804190851304 0.9999999061893434
1900.3823194664997 0.9999999057276748
1900.3842198497691 0.9999999052663845
1900.386120234939 0.9999999048043279
1900.3880206220097 0.9999999043327533
1900.3899210109803 0.999999903841209
1900.3918214018513 0.9999999033281955
1900.3937217946227 0.9999999028128792
1900.3956221892947 0.9999999023122684
1900.3975225858671 0.9999999018080283
1900.3994229843397 0.9999999012983304
1900.401323384713 0.9999999008362058
1900.4032237869862 0.9999999004403253
1900.4051241911604 0.9999999000528207
1900.4070245972348 0.9999998996263176
1900.4089250052098 0.9999998991575648
1900.4108254150844 0.9999998986570231
1900.4127258268602 0.9999998981406556
1900.4146262405359 0.9999998976401033
1900.4165266561124 0.9999998971833166
1900.4184270735893 0.9999998967526871
1900.4203274929666 0.9999998962916974
1900.4222279142446 0.9999998957514596
1900.4241283374222 0.9999998951432421
1900.4260287625007 0.9999998946013984
1900.4279291894795 0.9999998942257154
1900.4298296183588 0.9999998939022897
1900.4317300491382 0.9999998935276582
1900.4336304818187 0.9999998931027484
1900.4355309163998 0.9999998926520193
1900.4374313528806 0.9999998921899418
1900.4393317912616 0.9999998917169648
1900.441232231544 0.9999998912196248
1900.4431326737263 0.9999998906617251
1900.445033117809 0.9999998899856309
1900.4469335637923 0.999999889270407
1900.4488340116757 0.9999998888203577
1900.45073446146 0.9999998886018191
1900.452634913145 0.9999998883201171
1900.4545353667297 0.9999998879321859
1900.4564358222153 0.999999887498169
1900.4583362796013 0.9999998870487816
1900.460236738888 0.9999998865897685
1900.4621372000747 0.9999998861173175
1900.4640376631621 0.9999998856225197
1900.46593812815 0.9999998850942494
1900.4678385950383 0.99999988454688
1900.4697390638269 0.9999998840427574
1900.4716395345163 0.999999883623402
1900.4735400071058 0.9999998832414452
1900.475440481596 0.9999998828353941
1900.4773409579866 0.9999998823951289
1900.4792414362778 0.9999998819364001
1900.4811419164694 0.9999998814709096
1900.4830423985613 0.9999998810004035
1900.484942882554 0.9999998805206315
1900.486843368447 0.9999998800306965
1900.4887438562407 0.9999998795430346
1900.4906443459342 0.9999998790728148
1900.4925448375293 0.99999987861145
1900.4944453310243 0.9999998781377427
1900.4963458264197 0.9999998776455136
1900.4982463237159 0.9999998771370485
1900.5001468229125 0.999999876624824
1900.5020473240093 0.9999998761518643
1900.5039478270066 0.9999998757370138
1900.5058483319046 0.9999998753372739
1900.5077488387033 0.9999998749137461
1900.5096493474023 0.9999998744659094
1900.5115498580017 0.9999998740052232
1900.5134503705021 0.9999998735368278
1900.5153508849023 0.9999998730617967
1900.5172514012036 0.999999872586694
1900.519151919405 0.999999872121718
1900.5210524395072 0.9999998716620024
1900.5229529615094 0.9999998711961511
1900.5248534854127 0.9999998707208072
1900.5267540112163 0.9999998702387198
1900.5286545389204 0.9999998697557209
1900.5305550685252 0.9999998692686407
1900.5324556000307 0.9999998687526722
1900.5343561334362 0.9999998681811979
1900.536256668743 0.9999998675873276
1900.5381572059498 0.9999998670269188
1900.540057745057 0.9999998665193512
1900.541958286065 0.9999998661355546
1900.543858828974 0.999999865824891
1900.5457593737829 0.9999998654529483
1900.5476599204922 0.9999998649794373
1900.5495604691025 0.999999864399832
1900.551461019613 0.9999998637191281
1900.5533615720244 0.9999998630384359
1900.5552621263362 0.999999862570815
1900.5571626825486 0.9999998623290298
1900.5590632406613 0.9999998620859256
1900.5609638006747 0.9999998617397794
1900.562864362589 0.9999998613240894
1900.5647649264035 0.9999998608761084
1900.5666654921185 0.9999998604071281
1900.5685660597342 0.9999998599208474
1900.5704666292502 0.9999998594317183
1900.5723672006673 0.9999998589538359
1900.574267773985 0.9999998584737811
1900.5761683492024 0.9999998579751803
1900.5780689263213 0.9999998574825848
1900.5799695053404 0.9999998570345088
1900.5818700862608 0.9999998566171026
1900.5837706690809 0.9999998561867226
1900.5856712538014 0.9999998557346302
1900.587571840423 0.9999998552789271
1900.5894724289449 0.9999998548271835
1900.5913730193674 0.9999998543728171
1900.593273611691 0.9999998539127948
1900.5951742059142 0.9999998534514715
1900.597074802039 0.9999998529909662
1900.5989754000636 0.9999998525265218
1900.6008759999897 0.9999998520530656
1900.6027766018155 0.9999998515728229
1900.604677205543 0.9999998510945752
1900.6065778111702 0.999999850624779
1900.608478418698 0.9999998501633568
1900.610379028127 0.9999998497063325
1900.6122796394563 0.9999998492465496
1900.614180252686 0.9999998487777294
1900.6160808678167 0.9999998482986686
1900.6179814848479 0.9999998478090503
1900.6198821037794 0.9999998473098077
1900.6217827246119 0.9999998468201364
1900.6236833473447 0.9999998463651004
1900.6255839719784 0.9999998459313674
1900.6274845985124 0.9999998454891126
1900.6293852269469 0.9999998450337927
1900.6312858572826 0.9999998445760608
1900.6331864895187 0.9999998441182686
1900.6350871236557 0.999999843654285
1900.636987759693 0.9999998431817005
1900.638888397631 0.9999998427063256
1900.6407890374699 0.999999842237321
1900.6426896792093 0.9999998417766679
1900.6445903228487 0.9999998413167877
1900.6464909683893 0.999999840851019
1900.6483916158306 0.9999998403797836
1900.6502922651723 0.9999998399046823
1900.6521929164153 0.9999998394183646
1900.6540935695584 0.9999998388980298
1900.6559942246022 0.9999998383161204
1900.6578948815466 0.9999998377082281
1900.6597955403915 0.9999998372166057
1900.6616962011378 0.9999998368716205
1900.6635968637843 0.9999998365335754
1900.6654975283316 0.9999998361366184
1900.6673981947793 0.9999998356993115
1900.6692988631276 0.9999998352442812
1900.671199533377 0.9999998347809401
1900.6731002055265 0.9999998343113236
1900.6750008795768 0.9999998338327784
1900.676901555528 0.9999998333370562
1900.6788022333803 0.9999998328193423
1900.6807029131326 0.9999998323031869
1900.6826035947859 0.9999998318287258
1900.6845042783395 0.9999998313809981
1900.686404963794 0.9999998309042615
1900.6883056511492 0.9999998303892904
1900.6902063404052 0.999999829882854
1900.692107031562 0.9999998294026372
1900.6940077246195 0.9999998288688434
1900.6959084195773 0.9999998281892928
1900.6978091164358 0.9999998274418549
1900.6997098151955 0.9999998268986945
1900.7016105158552 0.9999998266607594
1900.703511218416 0.9999998264963621
1900.7054119228774 0.999999826213005
1900.7073126292398 0.9999998258106845
1900.7092133375024 0.9999998253473931
1900.711114047666 0.9999998248632371
1900.7130147597309 0.9999998243872684
1900.7149154736956 0.999999823938483
1900.7168161895615 0.9999998235027168
1900.7187169073277 0.9999998230501503
1900.7206176269951 0.9999998225706183
1900.7225183485632 0.999999822063838
1900.7244190720317 0.9999998215085988
1900.7263197974012 0.9999998208768953
1900.728220524671 0.9999998202321643
1900.7301212538418 0.9999998197421367
1900.7320219849134 0.999999819440097
1900.7339227178857 0.9999998191663961
1900.7358234527587 0.9999998188172089
1900.7377241895326 0.9999998184019042
1900.739624928207 0.9999998179548027
1900.7415256687818 0.9999998174952115
1900.743426411258 0.9999998170309261
1900.7453271556344 0.9999998165654835
1900.747227901912 0.9999998161008724
1900.7491286500904 0.9999998156374232
1900.7510294001693 0.9999998151731174
1900.7529301521488 0.9999998147047235
1900.7548309060296 0.9999998142305793
1900.7567316618108 0.9999998137556171
1900.7586324194926 0.9999998132891428
1900.7605331790753 0.9999998128289191
1900.7624339405588 0.9999998123641974
1900.7643347039432 0.9999998118902124
1900.7662354692281 0.9999998114097349
1900.7681362364137 0.9999998109334856
1900.7700370055004 0.9999998104698185
1900.7719377764877 0.9999998100097807
1900.773838549376 0.9999998095387113
1900.7757393241648 0.9999998090399658
1900.7776401008543 0.9999998084866991
1900.7795408794452 0.9999998078772363
1900.781441659936 0.9999998073190027
1900.783342442328 0.9999998069220553
1900.7852432266209 0.9999998065942094
1900.7871440128142 0.9999998062212854
1900.7890448009086 0.9999998057963765
1900.790945590904 0.9999998053441277
1900.7928463827998 0.9999998048786456
1900.7947471765965 0.9999998043990243
1900.796647972294 0.9999998038916301
1900.7985487698922 0.9999998033471118
1900.8004495693913 0.9999998027992533
1900.8023503707914 0.9999998023185923
1900.8042511740919 0.9999998019165167
1900.8061519792934 0.9999998015285856
1900.8080527863956 0.9999998011085536
1900.8099535953988 0.9999998006543614
1900.8118544063027 0.9999998001744458
1900.8137552191074 0.9999997996709823
1900.815656033813 0.9999997991346623
1900.8175568504194 0.9999997985240809
1900.8194576689266 0.9999997978104181
1900.8213584893347 0.9999997971955932
1900.8232593116434 0.9999997968811278
1900.8251601358527 0.9999997966419985
1900.8270609619635 0.9999997962993991
1900.828961789975 0.9999997958808976
1900.830862619887 0.999999795435919
1900.8327634516997 0.9999997949921022
1900.8346642854137 0.9999997945541365
1900.8365651210283 0.9999997941120643
1900.838465958544 0.9999997936624457
1900.8403667979603 0.9999997932074892
1900.8422676392775 0.9999997927470642
1900.8441684824954 0.9999997922794928
1900.846069327614 0.9999997918043602
1900.8479701746337 0.9999997913260328
1900.8498710235547 0.9999997908529951
1900.8517718743758 0.9999997903883975
1900.853672727098 0.9999997899252241
1900.8555735817213 0.999999789454431
1900.857474438245 0.9999997889769595
1900.8593752966701 0.9999997885018678
1900.8612761569957 0.9999997880325323
1900.8631770192221 0.9999997875670632
1900.8650778833494 0.9999997871058857
1900.8669787493775 0.9999997866449288
1900.868879617307 0.9999997861735507
1900.8707804871362 0.9999997856779246
1900.872681358867 0.9999997851372766
1900.874582232499 0.999999784542642
1900.8764831080316 0.9999997839544074
1900.878383985465 0.9999997834451418
1900.8802848647993 0.9999997829507264
1900.8821857460346 0.999999782360816
1900.8840866291705 0.9999997817153952
1900.8859875142077 0.9999997812434621
1900.8878884011453 0.9999997809789521
1900.889789289984 0.999999780685125
1900.8916901807236 0.9999997802731843
1900.8935910733637 0.999999779835745
1900.8954919679054 0.9999997794375147
1900.897392864348 0.9999997790363591
1900.8992937626913 0.9999997785841793
1900.9011946629353 0.9999997780897245
1900.9030955650805 0.9999997775723387
1900.9049964691262 0.999999777019683
1900.9068973750734 0.999999776468102
1900.9087982829212 0.9999997760371656
1900.9106991926699 0.9999997757044926
1900.9126001043194 0.9999997753369647
1900.9145010178697 0.9999997749050129
1900.9164019333211 0.9999997744471001
1900.9183028506736 0.9999997739855222
1900.9202037699272 0.9999997735159029
1900.922104691081 0.9999997730409017
1900.9240056141361 0.9999997725768722
1900.925906539092 0.9999997721296614
1900.927807465949 0.9999997716890647
1900.929708394707 0.9999997712428412
1900.9316093253658 0.9999997707883993
1900.9335102579255 0.9999997703296511
1900.935411192386 0.999999769868594
1900.9373121287476 0.9999997694046844
1900.9392130670103 0.9999997689376473
1900.9411140071738 0.9999997684680031
1900.9430149492382 0.9999997679968619
1900.9449158932034 0.9999997675255949
1900.94681683907 0.9999997670542021
1900.948717786837 0.9999997665791877
1900.9506187365052 0.9999997666143052
1900.9525196880745 0.999999766679999
1900.9544206415444 0.9999997667184731
1900.9563215969154 0.9999997666344247
1900.958222554187 0.9999997665747574
1900.9601235133605 0.9999997666652097
1900.9620244744342 0.9999997667330276
1900.963925437409 0.9999997666929352
1900.9658264022853 0.9999997666107517
1900.9677273690618 0.9999997665497643
1900.9696283377396 0.9999997665278264
1900.9715293083184 0.9999997665360979
1900.9734302807985 0.9999997665505392
1900.975331255179 0.9999997665538913
1900.977232231461 0.9999997665488533
1900.9791332096431 0.999999766547349
1900.9810341897269 0.9999997665564229
1900.9829351717112 0.999999766579591
1900.984836155597 0.9999997666178436
1900.9867371413834 0.999999766651568
1900.9886381290712 0.9999997666435717
1900.9905391186596 0.9999997665979377
1900.9924401101491 0.9999997665566093
1900.9943411035395 0.9999997665207703
1900.9962420988313 0.9999997664625098
1900.998143096024 0.999999766430141
1901.0000440951176 0.9999997665152955
1901.0019450961122 0.9999997667030602
