Atmospheric Species: CH4
Metallicity: 10000
C/O_Ratio: 0.5
Wavelength[nm] Flux_variation
2199.999397930935 0.9999999137826167
2200.001597931433 0.9999999137751303
2200.003797934131 0.9999999137810396
2200.0059979390285 0.9999999137866895
2200.0081979461265 0.999999913792039
2200.010397955424 0.9999999137970692
2200.0125979669224 0.9999999138018092
2200.01479798062 0.9999999138063438
2200.016997996518 0.9999999138107912
2200.019198014616 0.9999999138152684
2200.021398034914 0.9999999138198609
2200.023598057412 0.9999999138246103
2200.0257980821098 0.9999999138295228
2200.027998109008 0.99999991383459
2200.030198138106 0.9999999138398115
2200.032398169404 0.9999999138452045
2200.034598202902 0.9999999138507942
2200.0367982386 0.9999999138565997
2200.0389982764987 0.9999999138626197
2200.041198316597 0.9999999138688167
2200.043398358895 0.9999999138750993
2200.0455984033933 0.9999999138813157
2200.0477984500917 0.9999999138872792
2200.04999849899 0.9999999138928232
2200.052198550088 0.9999999138978517
2200.0543986033867 0.9999999139023478
2200.0565986588854 0.9999999139063331
2200.058798716584 0.9999999139098114
2200.0609987764824 0.9999999139127536
2200.0631988385812 0.9999999139151446
2200.06539890288 0.9999999139170448
2200.0675989693787 0.9999999139185959
2200.0697990380777 0.9999999139199652
2200.071999108977 0.9999999139212867
2200.074199182076 0.9999999139226436
2200.076399257375 0.999999913924095
2200.078599334874 0.9999999139257154
2200.0807994145734 0.999999913927628
2200.082999496473 0.9999999139300116
2200.0851995805724 0.9999999139330519
2200.087399666872 0.9999999139368556
2200.0895997553716 0.9999999139413845
2200.0917998460714 0.999999913946466
2200.093999938971 0.9999999139518545
2200.096200034071 0.999999913957285
2200.098400131371 0.9999999139624834
2200.100600230871 0.9999999139671804
2200.1028003325714 0.999999913971175
2200.1050004364715 0.9999999139744197
2200.107200542572 0.9999999139770431
2200.1094006508724 0.9999999139792857
2200.111600761373 0.9999999139813904
2200.113800874074 0.9999999139835309
2200.116000988975 0.9999999139858035
2200.118201106076 0.9999999139882557
2200.120401225377 0.999999913990914
2200.1226013468786 0.9999999139937922
2200.1248014705798 0.9999999139968837
2200.1270015964815 0.9999999140001523
2200.129201724583 0.9999999140035275
2200.1314018548846 0.9999999140069105
2200.1336019873866 0.9999999140101914
2200.1358021220885 0.9999999140132777
2200.1380022589906 0.9999999140161274
2200.1402023980927 0.9999999140187663
2200.1424025393953 0.9999999140212743
2200.1446026828976 0.9999999140237461
2200.1468028286004 0.999999914026254
2200.149002976503 0.9999999140288368
2200.151203126606 0.9999999140315223
2200.1534032789095 0.9999999140343553
2200.1556034334126 0.9999999140374037
2200.157803590116 0.9999999140407311
2200.16000374902 0.9999999140443538
2200.162203910123 0.9999999140482226
2200.1644040734272 0.9999999140522402
2200.1666042389315 0.9999999140563001
2200.168804406636 0.9999999140603126
2200.17100457654 0.999999914064207
2200.173204748645 0.9999999140679163
2200.1754049229494 0.9999999140713791
2200.1776050994545 0.9999999140745606
2200.179805278159 0.9999999140774856
2200.182005459065 0.9999999140802522
2200.18420564217 0.9999999140830055
2200.186405827476 0.9999999140858781
2200.188606014982 0.9999999140889462
2200.1908062046878 0.9999999140922409
2200.193006396594 0.9999999140958115
2200.1952065907003 0.9999999140997564
2200.197406787007 0.9999999141041689
2200.1996069855136 0.9999999141090422
2200.201807186221 0.9999999141142398
2200.204007389128 0.9999999141195636
2200.2062075942354 0.9999999141248522
2200.208407801543 0.9999999141300284
2200.2106080110507 0.9999999141350817
2200.2128082227587 0.9999999141400315
2200.215008436667 0.9999999141449047
2200.2172086527758 0.9999999141497322
2200.2194088710844 0.9999999141545505
2200.221609091593 0.9999999141593969
2200.2238093143023 0.9999999141643009
2200.2260095392116 0.9999999141692779
2200.228209766321 0.9999999141743291
2200.230409995631 0.9999999141794471
2200.232610227141 0.9999999141846183
2200.2348104608513 0.9999999141898214
2200.237010696762 0.9999999141950245
2200.2392109348725 0.9999999142001832
2200.2414111751837 0.9999999142052483
2200.243611417695 0.9999999142101775
2200.245811662406 0.9999999142149479
2200.248011909318 0.9999999142195544
2200.25021215843 0.9999999142239967
2200.2524124097417 0.9999999142282637
2200.254612663254 0.9999999142323298
2200.256812918967 0.999999914236168
2200.2590131768798 0.9999999142397707
2200.2612134369933 0.9999999142431633
2200.2634136993065 0.9999999142463998
2200.26561396382 0.9999999142495462
2200.2678142305344 0.9999999142526579
2200.2700144994487 0.9999999142557633
2200.272214770563 0.9999999142588603
2200.274415043878 0.9999999142619278
2200.2766153193934 0.9999999142649509
2200.2788155971084 0.9999999142679533
2200.281015877024 0.9999999142710176
2200.28321615914 0.9999999142742698
2200.2854164434566 0.9999999142778242
2200.287616729973 0.9999999142817241
2200.2898170186895 0.9999999142859214
2200.2920173096068 0.9999999142903127
2200.294217602724 0.9999999142947905
2200.296417898042 0.9999999142992745
2200.29861819556 0.9999999143037098
2200.3008184952782 0.9999999143080622
2200.3030187971967 0.9999999143123189
2200.3052191013153 0.9999999143164926
2200.307419407635 0.9999999143206201
2200.309619716154 0.9999999143247511
2200.3118200268736 0.9999999143289335
2200.314020339794 0.9999999143332
2200.3162206549146 0.9999999143375724
2200.3184209722353 0.9999999143420794
2200.320621291756 0.9999999143467699
2200.3228216134776 0.999999914351697
2200.3250219373995 0.9999999143568781
2200.3272222635214 0.9999999143622682
2200.3294225918435 0.9999999143677702
2200.3316229223665 0.999999914373272
2200.3338232550896 0.9999999143786864
2200.3360235900127 0.9999999143839654
2200.3382239271364 0.9999999143890882
2200.34042426646 0.9999999143940413
2200.342624607985 0.9999999143988105
2200.3448249517096 0.9999999144033888
2200.3470252976344 0.9999999144077866
2200.34922564576 0.9999999144120278
2200.3514259960857 0.9999999144161338
2200.3536263486117 0.9999999144201137
2200.355826703338 0.9999999144239781
2200.3580270602647 0.9999999144277569
2200.3602274193922 0.9999999144315067
2200.36242778072 0.9999999144352928
2200.3646281442475 0.9999999144391677
2200.3668285099757 0.9999999144431685
2200.3690288779044 0.9999999144473294
2200.371229248033 0.999999914451691
2200.3734296203625 0.9999999144562866
2200.3756299948923 0.9999999144611195
2200.377830371622 0.9999999144661547
2200.3800307505526 0.9999999144713311
2200.3822311316835 0.9999999144765777
2200.3844315150145 0.999999914481814
2200.386631900546 0.999999914486943
2200.388832288278 0.9999999144918568
2200.3910326782106 0.9999999144964676
2200.3932330703433 0.9999999145007447
2200.3954334646764 0.9999999145047209
2200.39763386121 0.9999999145084629
2200.399834259944 0.9999999145120341
2200.402034660878 0.9999999145154852
2200.404235064013 0.9999999145188777
2200.4064354693483 0.9999999145223001
2200.4086358768836 0.9999999145258539
2200.4108362866195 0.9999999145296152
2200.413036698556 0.9999999145336051
2200.415237112693 0.9999999145377833
2200.4174375290304 0.9999999145420675
2200.419637947568 0.9999999145463655
2200.421838368306 0.9999999145506075
2200.4240387912446 0.9999999145547672
2200.4262392163832 0.9999999145588571
2200.428439643723 0.9999999145629046
2200.430640073262 0.9999999145669267
2200.432840505003 0.9999999145709128
2200.435040938943 0.9999999145748227
2200.4372413750843 0.9999999145785997
2200.4394418134257 0.9999999145822012
2200.4416422539675 0.9999999145856362
2200.4438426967104 0.9999999145889895
2200.4460431416533 0.9999999145924034
2200.4482435887962 0.9999999145960213
2200.45044403814 0.9999999145999254
2200.452644489684 0.9999999146041121
2200.4548449434287 0.9999999146085188
2200.457045399374 0.9999999146130707
2200.4592458575194 0.9999999146177088
2200.4614463178655 0.9999999146223871
2200.463646780412 0.9999999146270583
2200.465847245159 0.9999999146316627
2200.468047712106 0.9999999146361329
2200.470248181254 0.9999999146404068
2200.4724486526025 0.9999999146444427
2200.4746491261512 0.999999914648226
2200.4768496019005 0.9999999146517752
2200.4790500798504 0.9999999146551416
2200.4812505600003 0.9999999146584031
2200.483451042351 0.9999999146616488
2200.4856515269025 0.9999999146649584
2200.487852013654 0.9999999146683852
2200.4900525026064 0.9999999146719485
2200.492252993759 0.9999999146756363
2200.494453487112 0.9999999146794191
2200.4966539826655 0.9999999146832643
2200.49885448042 0.9999999146871459
2200.5010549803746 0.9999999146910458
2200.5032554825298 0.9999999146949493
2200.5054559868854 0.9999999146988421
2200.5076564934416 0.9999999147027095
2200.5098570021983 0.9999999147065409
2200.5120575131555 0.9999999147103324
2200.514258026313 0.9999999147140861
2200.5164585416715 0.9999999147177988
2200.5186590592302 0.999999914721446
2200.5208595789895 0.9999999147249705
2200.5230601009494 0.9999999147282937
2200.5252606251097 0.9999999147313489
2200.5274611514706 0.9999999147341164
2200.529661680032 0.999999914736638
2200.531862210794 0.9999999147390026
2200.5340627437563 0.9999999147413171
2200.5362632789193 0.9999999147436764
2200.5384638162827 0.9999999147461553
2200.5406643558467 0.9999999147488197
2200.5428648976113 0.9999999147517515
2200.5450654415763 0.999999914755054
2200.547265987742 0.9999999147588173
2200.549466536108 0.9999999147630675
2200.5516670866746 0.9999999147677353
2200.553867639442 0.9999999147726772
2200.55606819441 0.9999999147777306
2200.5582687515785 0.999999914782773
2200.560469310947 0.999999914787749
2200.562669872517 0.9999999147926648
2200.564870436287 0.9999999147975533
2200.5670710022578 0.9999999148024398
2200.5692715704286 0.9999999148073285
2200.571472140801 0.9999999148122115
2200.573672713373 0.9999999148170833
2200.575873288146 0.9999999148219165
2200.578073865119 0.9999999148266969
2200.5802744442935 0.9999999148314277
2200.5824750256684 0.9999999148360462
2200.5846756092433 0.9999999148404829
2200.586876195019 0.9999999148446972
2200.5890767829956 0.9999999148486973
2200.5912773731725 0.9999999148525223
2200.59347796555 0.9999999148562054
2200.5956785601284 0.9999999148597546
2200.597879156907 0.999999914863161
2200.6000797558863 0.9999999148664263
2200.6022803570663 0.9999999148695826
2200.604480960447 0.9999999148727001
2200.6066815660283 0.9999999148758807
2200.60888217381 0.9999999148792494
2200.611082783792 0.9999999148829336
2200.613283395975 0.9999999148870158
2200.6154840103586 0.9999999148914759
2200.617684626943 0.9999999148961732
2200.619885245728 0.9999999149009038
2200.6220858667134 0.999999914905501
2200.6242864898995 0.9999999149099003
2200.626487115286 0.9999999149141287
2200.6286877428734 0.9999999149182481
2200.6308883726615 0.9999999149223133
2200.63308900465 0.999999914926359
2200.6352896388394 0.9999999149304075
2200.637490275229 0.9999999149344743
2200.63969091382 0.9999999149385702
2200.641891554611 0.9999999149427045
2200.6440921976027 0.9999999149468869
2200.646292842795 0.9999999149511292
2200.6484934901882 0.999999914955441
2200.650694139782 0.9999999149598273
2200.6528947915763 0.9999999149642894
2200.655095445571 0.9999999149688297
2200.657296101767 0.9999999149734542
2200.659496760163 0.9999999149781691
2200.66169742076 0.9999999149829746
2200.663898083558 0.9999999149878628
2200.6660987485557 0.9999999149928193
2200.668299415755 0.9999999149978266
2200.6705000851543 0.9999999150028623
2200.6727007567547 0.9999999150078911
2200.6749014305556 0.9999999150128597
2200.677102106557 0.9999999150177075
2200.67930278476 0.9999999150223857
2200.6815034651627 0.999999915026874
2200.6837041477665 0.9999999150311794
2200.685904832571 0.9999999150353247
2200.6881055195763 0.9999999150393367
2200.6903062087817 0.9999999150432385
2200.6925069001886 0.9999999150470424
2200.6947075937956 0.9999999150507506
2200.6969082896035 0.9999999150543675
2200.699108987612 0.9999999150579163
2200.701309687821 0.9999999150614414
2200.7035103902313 0.9999999150649941
2200.7057110948417 0.999999915068594
2200.707911801653 0.9999999150722706
2200.710112510665 0.9999999150760346
2200.7123132218776 0.999999915079882
2200.7145139352915 0.9999999150838226
2200.7167146509055 0.9999999150879068
2200.7189153687204 0.9999999150922334
2200.721116088736 0.9999999150969191
2200.7233168109524 0.9999999151020259
2200.72551753537 0.999999915107505
2200.7277182619873 0.9999999151132148
2200.729918990806 0.9999999151190087
2200.7321197218253 0.9999999151248086
2200.7343204550452 0.9999999151306145
2200.736521190466 0.9999999151364612
2200.7387219280877 0.9999999151423782
2200.7409226679097 0.9999999151483697
2200.7431234099327 0.9999999151544008
2200.7453241541566 0.9999999151603767
2200.747524900581 0.9999999151661421
2200.749725649206 0.9999999151715302
2200.751926400032 0.9999999151764545
2200.754127153059 0.9999999151809681
2200.7563279082865 0.9999999151852441
2200.7585286657145 0.9999999151894837
2200.7607294253435 0.9999999151938321
2200.7629301871734 0.9999999151983484
2200.765130951204 0.9999999152030337
2200.767331717435 0.9999999152078788
2200.769532485867 0.999999915212895
2200.7717332565 0.9999999152181072
2200.7739340293333 0.9999999152235154
2200.7761348043678 0.9999999152290628
2200.7783355816027 0.9999999152346373
2200.7805363610387 0.9999999152401106
2200.782737142675 0.9999999152453808
2200.7849379265126 0.9999999152503803
2200.787138712551 0.9999999152550573
2200.78933950079 0.9999999152593779
2200.79154029123 0.9999999152633572
2200.7937410838704 0.999999915267082
2200.795941878712 0.9999999152706786
2200.798142675754 0.9999999152742501
2200.800343474997 0.9999999152778358
2200.802544276441 0.9999999152814255
2200.804745080086 0.9999999152849989
2200.806945885931 0.999999915288546
2200.8091466939773 0.999999915292062
2200.811347504224 0.9999999152955432
2200.813548316672 0.9999999152990007
2200.8157491313204 0.9999999153024746
2200.8179499481703 0.9999999153060251
2200.8201507672206 0.9999999153097078
2200.8223515884715 0.999999915313558
2200.8245524119234 0.9999999153175967
2200.826753237576 0.9999999153218438
2200.8289540654296 0.9999999153263228
2200.8311548954844 0.9999999153310402
2200.833355727739 0.9999999153359475
2200.8355565621955 0.9999999153409114
2200.8377573988523 0.9999999153457286
2200.83995823771 0.9999999153502087
2200.842159078769 0.9999999153542755
2200.844359922028 0.999999915358009
2200.8465607674884 0.9999999153615873
2200.8487616151497 0.9999999153651741
2200.850962465012 0.9999999153688386
2200.853163317074 0.9999999153725513
2200.855364171338 0.99999991537624
2200.8575650278026 0.9999999153798615
2200.8597658864683 0.9999999153834375
2200.8619667473345 0.9999999153870383
2200.864167610401 0.9999999153907453
2200.8663684756693 0.9999999153946217
2200.8685693431385 0.9999999153987054
2200.870770212808 0.9999999154030067
2200.8729710846787 0.9999999154074984
2200.87517195875 0.9999999154120949
2200.8773728350225 0.9999999154166405
2200.8795737134956 0.999999915420923
2200.8817745941697 0.999999915424722
2200.8839754770443 0.9999999154278828
2200.8861763621203 0.9999999154303717
2200.888377249397 0.9999999154322783
2200.890578138875 0.9999999154337654
2200.8927790305534 0.9999999154350068
2200.8949799244324 0.9999999154361476
2200.897180820513 0.9999999154372926
2200.899381718794 0.9999999154385057
2200.901582619276 0.9999999154398164
2200.903783521959 0.9999999154412326
2200.905984426843 0.9999999154427605
2200.908185333928 0.9999999154444144
2200.9103862432135 0.9999999154462115
2200.9125871547003 0.9999999154481581
2200.9147880683877 0.999999915450239
2200.916988984276 0.9999999154524192
2200.9191899023654 0.9999999154546549
2200.921390822655 0.9999999154569063
2200.9235917451465 0.9999999154591469
2200.9257926698388 0.9999999154613706
2200.9279935967315 0.9999999154635956
2200.9301945258253 0.9999999154658644
2200.9323954571205 0.9999999154682382
2200.934596390616 0.9999999154707772
2200.936797326313 0.9999999154735193
2200.9389982642106 0.9999999154764692
2200.941199204309 0.9999999154796043
2200.9434001466084 0.9999999154828945
2200.945601091109 0.999999915486316
2200.9478020378106 0.9999999154898561
2200.9500029867127 0.9999999154935085
2200.952203937816 0.9999999154972709
2200.9544048911207 0.9999999155011431
2200.9566058466257 0.9999999155051275
2200.958806804332 0.999999915509228
2200.9610077642396 0.9999999155134488
2200.9632087263476 0.999999915517792
2200.9654096906565 0.9999999155222508
2200.967610657167 0.9999999155267986
2200.969811625878 0.9999999155313783
2200.9720125967897 0.9999999155359017
2200.974213569903 0.9999999155402646
2200.976414545217 0.9999999155443808
2200.9786155227316 0.9999999155482182
2200.980816502448 0.9999999155519778
2200.9830174843646 0.9999999155552495
2200.9852184684823 0.9999999155585985
2200.9874194548015 0.9999999155618781
2200.989620443321 0.9999999155650463
2200.991821434042 0.9999999155680436
2200.994022426964 0.9999999155708331
2200.9962234220866 0.9999999155734118
2200.9984244194106 0.9999999155757965
2201.000625418935 0.9999999155780135
2201.002826420661 0.9999999155801027
2201.0050274245878 0.999999915582114
2201.0072284307157 0.9999999155840933
2201.0094294390447 0.9999999155860707
2201.0116304495746 0.9999999155880606
2201.0138314623055 0.9999999155900656
2201.0160324772373 0.9999999155920719
2201.01823349437 0.9999999155940512
2201.020434513704 0.9999999155959803
2201.022635535239 0.999999915597871
2201.0248365589746 0.9999999155997801
2201.027037584912 0.9999999156017858
2201.0292386130495 0.9999999156039541
2201.0314396433887 0.9999999156063197
2201.033640675929 0.9999999156088911
2201.03584171067 0.9999999156116626
2201.038042747612 0.9999999156146195
2201.0402437867556 0.9999999156177348
2201.0424448280996 0.9999999156209647
2201.044645871645 0.9999999156242516
2201.046846917391 0.9999999156275317
2201.0490479653386 0.999999915630747
2201.051249015487 0.999999915633856
2201.0534500678364 0.9999999156368401
2201.055651122387 0.9999999156396919
2201.0578521791385 0.9999999156423958
2201.0600532380913 0.9999999156449221
2201.062254299245 0.9999999156472512
2201.0644553626 0.9999999156494112
2201.066656428156 0.9999999156514905
2201.0688574959127 0.9999999156536109
2201.0710585658708 0.9999999156558801
2201.07325963803 0.9999999156583592
2201.07546071239 0.9999999156610504
2201.077661788951 0.9999999156639032
2201.0798628677135 0.9999999156668321
2201.082063948677 0.9999999156697443
2201.0842650318414 0.9999999156725621
2201.086466117207 0.999999915675237
2201.088667204773 0.9999999156777577
2201.090868294541 0.9999999156801607
2201.0930693865093 0.9999999156825349
2201.0952704806796 0.9999999156850008
2201.0974715770503 0.9999999156876618
2201.0996726756225 0.9999999156905608
2201.1018737763957 0.9999999156936691
2201.10407487937 0.9999999156969201
2201.1062759845454 0.9999999157002568
2201.1084770919215 0.9999999157036609
2201.110678201499 0.9999999157071428
2201.112879313278 0.9999999157107049
2201.1150804272575 0.9999999157143165
2201.1172815434384 0.9999999157179238
2201.1194826618207 0.9999999157214773
2201.1216837824036 0.9999999157249578
2201.123884905188 0.9999999157283717
2201.1260860301736 0.9999999157317279
2201.12828715736 0.9999999157350111
2201.1304882867475 0.9999999157381703
2201.132689418336 0.9999999157411321
2201.1348905521263 0.9999999157438283
2201.1370916881174 0.9999999157462248
2201.1392928263094 0.9999999157483507
2201.141493966703 0.9999999157503168
2201.1436951092974 0.9999999157523098
2201.145896254093 0.9999999157545495
2201.1480974010897 0.9999999157572235
2201.1502985502875 0.9999999157604406
2201.1524997016863 0.9999999157642335
2201.1547008552866 0.9999999157685961
2201.1569020110883 0.9999999157735168
2201.159103169091 0.9999999157789625
2201.161304329294 0.9999999157848265
2201.163505491699 0.999999915790909
2201.165706656305 0.9999999157969829
2201.1679078231123 0.9999999158028986
2201.1701089921207 0.9999999158086241
