Atmospheric Species: CO
Metallicity: 10000
C/O_Ratio: 1.0
Wavelength[nm] Flux_variation
1999.999812280322 1.0
2000.001812281134 0.9999999998565022
2000.003812283946 0.9999999998089119
2000.0058122887588 0.9999999997613198
2000.0078122955706 0.9999999997137264
2000.0098123043829 0.9999999996661318
2000.0118123151951 0.999999999618536
2000.0138123280071 0.9999999995709392
2000.0158123428193 0.9999999995233415
2000.017812359632 0.999999999475743
2000.0198123784444 0.9999999994281443
2000.0218123992565 0.9999999993805455
2000.0238124220684 0.9999999993329467
2000.025812446881 0.9999999992853474
2000.0278124736938 0.9999999992377477
2000.0298125025063 0.9999999991901473
2000.0318125333185 0.999999999142546
2000.033812566131 0.999999999094944
2000.0358126009435 0.9999999990473409
2000.037812637756 0.9999999989997372
2000.0398126765688 0.9999999989521328
2000.0418127173812 0.9999999989045274
2000.0438127601935 0.999999998856921
2000.0458128050066 0.9999999988093138
2000.0478128518196 0.9999999987617054
2000.0498129006319 0.9999999987140961
2000.0518129514448 0.9999999986664857
2000.053813004258 0.9999999986188751
2000.055813059071 0.9999999985712649
2000.0578131158836 0.9999999985236556
2000.0598131746967 0.9999999984760473
2000.06181323551 0.9999999984284395
2000.0638132983227 0.9999999983808313
2000.0658133631362 0.9999999983332226
2000.0678134299496 0.9999999982856129
2000.0698134987629 0.9999999982380021
2000.0718135695763 0.9999999981903903
2000.0738136423897 0.9999999981427774
2000.0758137172033 0.9999999980951636
2000.0778137940172 0.999999998047549
2000.079813872831 0.9999999979999333
2000.0818139536448 0.999999997952317
2000.0838140364588 0.9999999979046997
2000.0858141212727 0.9999999978570815
2000.087814208087 0.9999999978094621
2000.089814296901 0.9999999977618416
2000.091814387715 0.9999999977142192
2000.0938144805295 0.9999999976665949
2000.095814575344 0.9999999976189675
2000.0978146721586 0.9999999975713366
2000.0998147709731 0.9999999975237013
2000.101814871788 0.999999997476061
2000.1038149746025 0.9999999974284178
2000.1058150794172 0.9999999973807763
2000.1078151862328 0.9999999973331427
2000.1098152950476 0.9999999972855217
2000.1118154058631 0.9999999972379127
2000.1138155186784 0.9999999971903103
2000.115815633494 0.9999999971427083
2000.1178157503095 0.9999999970951027
2000.1198158691257 0.9999999970474919
2000.121815989941 0.9999999969998766
2000.123816112757 0.9999999969522577
2000.1258162375732 0.9999999969046357
2000.1278163643894 0.9999999968570115
2000.1298164932057 0.999999996809385
2000.1318166240221 0.9999999967617568
2000.1338167568388 0.9999999967141266
2000.1358168916554 0.9999999966664953
2000.1378170284725 0.9999999966188633
2000.1398171672895 0.9999999965712312
2000.1418173081065 0.9999999965235994
2000.1438174509237 0.9999999964759677
2000.145817595741 0.9999999964283351
2000.1478177425586 0.9999999963807013
2000.1498178913766 0.9999999963330659
2000.1518180421942 0.9999999962854288
2000.1538181950127 0.9999999962377902
2000.1558183498312 0.9999999961901501
2000.1578185066492 0.9999999961425087
2000.1598186654676 0.999999996094866
2000.1618188262864 0.999999996047222
2000.1638189891055 0.9999999959995766
2000.165819153924 0.9999999959519298
2000.1678193207435 0.9999999959042815
2000.1698194895628 0.9999999958566316
2000.1718196603822 0.9999999958089801
2000.1738198332023 0.999999995761327
2000.1758200080221 0.999999995713672
2000.177820184842 0.9999999956660155
2000.1798203636622 0.9999999956183571
2000.1818205444827 0.9999999955706969
2000.183820727303 0.9999999955230348
2000.1858209121242 0.9999999954753706
2000.1878210989448 0.9999999954277046
2000.1898212877659 0.9999999953800366
2000.1918214785871 0.9999999953323666
2000.1938216714088 0.9999999952846943
2000.19582186623 0.9999999952370199
2000.1978220630526 0.9999999951893429
2000.1998222618745 0.9999999951416634
2000.2018224626968 0.9999999950939811
2000.2038226655195 0.9999999950462959
2000.205822870342 0.9999999949986079
2000.2078230771644 0.9999999949509174
2000.2098232859878 0.9999999949032246
2000.2118234968113 0.9999999948555292
2000.213823709635 0.9999999948078309
2000.2158239244584 0.9999999947601286
2000.2178241412826 0.9999999947124213
2000.2198243601067 0.9999999946647072
2000.2218245809313 0.9999999946169843
2000.2238248037554 0.9999999945692495
2000.2258250285802 0.9999999945214979
2000.2278252554056 0.9999999944737225
2000.2298254842308 0.999999994425913
2000.2318257150564 0.9999999943780573
2000.2338259478825 0.9999999943301446
2000.2358261827083 0.9999999942821767
2000.2378264195343 0.9999999942341843
2000.2398266583607 0.9999999941862349
2000.2418268991873 0.9999999941384067
2000.2438271420144 0.9999999940907374
2000.2458273868415 0.99999999404319
2000.247827633669 0.9999999939956752
2000.2498278824967 0.9999999939481068
2000.2518281333246 0.9999999939004456
2000.2538283861531 0.9999999938527131
2000.255828640981 0.9999999938049826
2000.2578288978098 0.9999999937573419
2000.2598291566387 0.9999999937098424
2000.2618294174679 0.9999999936624662
2000.2638296802972 0.9999999936151461
2000.2658299451268 0.9999999935678148
2000.267830211957 0.9999999935204357
2000.2698304807873 0.9999999934730021
2000.271830751618 0.9999999934255225
2000.2738310244486 0.9999999933780088
2000.2758312992798 0.9999999933304708
2000.277831576111 0.9999999932829161
2000.2798318549428 0.9999999932353495
2000.2818321357747 0.9999999931877741
2000.283832418607 0.9999999931401924
2000.2858327034396 0.9999999930926055
2000.2878329902726 0.9999999930450143
2000.2898332791053 0.9999999929974195
2000.2918335699385 0.9999999929498214
2000.2938338627723 0.9999999929022205
2000.2958341576061 0.9999999928546169
2000.2978344544404 0.9999999928070107
2000.299834753275 0.9999999927594019
2000.30183505411 0.9999999927117907
2000.3038353569448 0.9999999926641772
2000.3058356617803 0.9999999926165614
2000.3078359686162 0.9999999925689435
2000.3098362774524 0.9999999925213233
2000.3118365882883 0.9999999924737012
2000.313836901125 0.999999992426077
2000.3158372159623 0.9999999923784509
2000.3178375327993 0.9999999923308229
2000.319837851637 0.9999999922831931
2000.321838172475 0.9999999922355616
2000.3238384953136 0.9999999921879282
2000.3258388201518 0.9999999921402934
2000.3278391469905 0.9999999920926569
2000.3298394758299 0.9999999920450188
2000.331839806669 0.9999999919973792
2000.3338401395092 0.9999999919497383
2000.3358404743494 0.9999999919020959
2000.33784081119 0.9999999918544522
2000.3398411500311 0.9999999918068071
2000.3418414908724 0.9999999917591608
2000.3438418337141 0.9999999917115132
2000.3458421785558 0.9999999916638644
2000.3478425253984 0.9999999916162146
2000.3498428742414 0.9999999915685636
2000.351843225084 0.9999999915209113
2000.353843577928 0.9999999914732582
2000.3558439327714 0.999999991425604
2000.3578442896157 0.999999991377949
2000.3598446484605 0.9999999913302933
2000.361845009305 0.9999999912826365
2000.3638453721503 0.999999991234979
2000.3658457369957 0.9999999911873204
2000.3678461038414 0.9999999911396609
2000.3698464726879 0.9999999910920006
2000.3718468435345 0.9999999910443395
2000.3738472163816 0.9999999909966774
2000.3758475912289 0.9999999909490145
2000.3778479680766 0.9999999909013507
2000.3798483469245 0.9999999908536863
2000.3818487277726 0.9999999908060208
2000.3838491106217 0.9999999907583544
2000.3858494954707 0.9999999907106871
2000.3878498823208 0.9999999906630188
2000.389850271171 0.9999999906153495
2000.391850662021 0.9999999905676791
2000.3938510548717 0.9999999905200083
2000.3958514497233 0.9999999904723373
2000.3978518465744 0.9999999904246667
2000.3998522454267 0.999999990376996
2000.4018526462794 0.9999999903293252
2000.4038530491318 0.9999999902816537
2000.405853453985 0.9999999902339817
2000.407853860839 0.999999990186309
2000.4098542696927 0.9999999901386358
2000.4118546805466 0.999999990090962
2000.4138550934015 0.9999999900432874
2000.4158555082572 0.999999989995612
2000.4178559251125 0.999999989947936
2000.4198563439686 0.9999999899002592
2000.421856764825 0.9999999898525818
2000.423857187682 0.9999999898049037
2000.425857612539 0.9999999897572248
2000.427858039397 0.9999999897095454
2000.4298584682556 0.9999999896618653
2000.4318588991136 0.9999999896141845
2000.4338593319726 0.999999989566503
2000.4358597668324 0.9999999895188211
2000.4378602036923 0.9999999894711382
2000.4398606425525 0.9999999894234548
2000.4418610834134 0.9999999893757708
2000.4438615262745 0.9999999893280864
2000.4458619711359 0.9999999892804016
2000.4478624179985 0.9999999892327163
2000.449862866861 0.9999999891850304
2000.4518633177238 0.9999999891373442
2000.453863770587 0.9999999890896573
2000.4558642254513 0.9999999890419695
2000.4578646823156 0.9999999889942811
2000.4598651411802 0.9999999889465919
2000.4618656020457 0.9999999888989021
2000.4638660649114 0.9999999888512116
2000.4658665297777 0.99999998880352
2000.4678669966447 0.9999999887558275
2000.4698674655117 0.9999999887081339
2000.4718679363796 0.9999999886604388
2000.4738684092474 0.999999988612742
2000.475868884116 0.9999999885650428
2000.477869360985 0.9999999885173403
2000.4798698398545 0.9999999884696336
2000.4818703207245 0.9999999884219218
2000.483870803595 0.9999999883742052
2000.485871288466 0.9999999883264864
2000.4878717753377 0.9999999882787719
2000.4898722642095 0.9999999882310684
2000.491872755082 0.9999999881833793
2000.4938732479552 0.9999999881357015
2000.4958737428285 0.9999999880880281
2000.4978742397027 0.9999999880403528
2000.4998747385769 0.9999999879926728
2000.5018752394521 0.999999987944988
2000.5038757423272 0.9999999878972995
2000.5058762472029 0.9999999878496082
2000.5078767540795 0.9999999878019148
2000.509877262956 0.9999999877542197
2000.5118777738342 0.9999999877065232
2000.5138782867118 0.9999999876588253
2000.5158788015904 0.9999999876111261
2000.5178793184689 0.9999999875634259
2000.519879837349 0.9999999875157246
2000.5218803582286 0.9999999874680222
2000.5238808811096 0.9999999874203189
2000.5258814059907 0.9999999873726145
2000.5278819328719 0.999999987324909
2000.5298824617544 0.9999999872772024
2000.5318829926364 0.9999999872294947
2000.5338835255197 0.9999999871817867
2000.5358840604035 0.9999999871340791
2000.537884597288 0.9999999870863724
2000.5398851361724 0.9999999870386664
2000.5418856770577 0.9999999869909606
2000.5438862199437 0.9999999869432544
2000.54588676483 0.9999999868955474
2000.5478873117172 0.9999999868478391
2000.5498878606047 0.9999999868001295
2000.5518884114929 0.9999999867524189
2000.5538889643813 0.9999999867047072
2000.5558895192703 0.9999999866569944
2000.5578900761602 0.9999999866092807
2000.5598906350506 0.9999999865615661
2000.5618911959411 0.9999999865138505
2000.5638917588328 0.999999986466134
2000.5658923237245 0.9999999864184165
2000.567892890617 0.999999986370698
2000.5698934595102 0.9999999863229786
2000.5718940304037 0.9999999862752581
2000.573894603298 0.9999999862275366
2000.575895178193 0.999999986179814
2000.5778957550883 0.9999999861320902
2000.5798963339842 0.999999986084365
2000.5818969148809 0.9999999860366382
2000.5838974977776 0.9999999859889097
2000.5858980826756 0.9999999859411793
2000.5878986695739 0.9999999858934471
2000.589899258473 0.9999999858457136
2000.591899849372 0.9999999857979798
2000.5939004422726 0.9999999857502467
2000.5959010371732 0.9999999857025148
2000.5979016340743 0.9999999856547825
2000.599902232976 0.9999999856070484
2000.6019028338785 0.9999999855593105
2000.6039034367816 0.9999999855115669
2000.605904041685 0.9999999854638156
2000.6079046485897 0.9999999854160537
2000.6099052574943 0.9999999853682768
2000.6119058683998 0.9999999853204794
2000.613906481306 0.9999999852726555
2000.6159070962128 0.9999999852248032
2000.61790771312 0.9999999851769323
2000.6199083320282 0.9999999851290722
2000.621908952937 0.999999985081265
2000.623909575846 0.9999999850335443
2000.625910200756 0.99999998498591
2000.627910827666 0.9999999849383292
2000.6299114565775 0.9999999848907589
2000.6319120874891 0.9999999848431705
2000.633912720402 0.9999999847955537
2000.6359133553146 0.9999999847479106
2000.6379139922285 0.9999999847002472
2000.6399146311426 0.9999999846525691
2000.6419152720573 0.999999984604881
2000.643915914973 0.9999999845571859
2000.645916559889 0.9999999845094857
2000.6479172068057 0.9999999844617816
2000.649917855723 0.9999999844140747
2000.6519185066409 0.9999999843663653
2000.6539191595598 0.9999999843186537
2000.6559198144796 0.9999999842709397
2000.6579204713996 0.9999999842232238
2000.65992113032 0.9999999841755055
2000.6619217912419 0.9999999841277853
2000.6639224541639 0.999999984080063
2000.6659231190863 0.999999984032338
2000.6679237860099 0.9999999839846097
2000.6699244549338 0.9999999839368777
2000.6719251258585 0.999999983889144
2000.6739257987842 0.9999999838414129
2000.67592647371 0.9999999837936887
2000.6779271506366 0.9999999837459735
2000.6799278295641 0.9999999836982649
2000.6819285104925 0.9999999836505584
2000.6839291934211 0.9999999836028497
2000.6859298783502 0.9999999835551372
2000.6879305652806 0.9999999835074206
2000.6899312542112 0.9999999834597008
2000.691931945143 0.9999999834119782
2000.6939326380752 0.9999999833642537
2000.6959333330078 0.9999999833165277
2000.6979340299417 0.9999999832688005
2000.6999347288759 0.9999999832210724
2000.7019354298113 0.9999999831733435
2000.7039361327465 0.9999999831256137
2000.705936837683 0.9999999830778831
2000.7079375446203 0.9999999830301517
2000.7099382535578 0.9999999829824193
2000.7119389644963 0.9999999829346863
2000.7139396774357 0.9999999828869525
2000.7159403923756 0.9999999828392181
2000.7179411093164 0.9999999827914829
2000.7199418282578 0.9999999827437471
2000.7219425491999 0.9999999826960106
2000.7239432721424 0.9999999826482736
2000.7259439970862 0.9999999826005359
2000.7279447240305 0.9999999825527977
2000.7299454529755 0.9999999825050588
2000.7319461839213 0.9999999824573194
2000.7339469168678 0.9999999824095792
2000.735947651815 0.9999999823618385
2000.7379483887632 0.9999999823140971
2000.7399491277117 0.9999999822663552
2000.741949868661 0.9999999822186126
2000.7439506116116 0.9999999821708693
2000.745951356562 0.9999999821231252
2000.7479521035139 0.9999999820753803
2000.7499528524665 0.9999999820276344
2000.7519536034195 0.9999999819798877
2000.7539543563735 0.9999999819321403
2000.7559551113281 0.9999999818843929
2000.7579558682833 0.999999981836646
2000.75995662724 0.9999999817888997
2000.7619573881968 0.9999999817411542
2000.7639581511546 0.9999999816934085
2000.7659589161133 0.9999999816456623
2000.7679596830724 0.999999981597915
2000.7699604520324 0.9999999815501669
2000.7719612229935 0.999999981502418
2000.7739619959548 0.9999999814546684
2000.775962770917 0.9999999814069183
2000.7779635478798 0.9999999813591675
2000.7799643268443 0.999999981311416
2000.7819651078087 0.9999999812636641
2000.783965890774 0.9999999812159118
2000.7859666757402 0.9999999811681589
2000.7879674627075 0.9999999811204057
2000.789968251675 0.9999999810726519
2000.7919690426434 0.9999999810248975
2000.7939698356126 0.9999999809771427
2000.795970630583 0.9999999809293876
2000.7979714275539 0.9999999808816319
2000.7999722265256 0.9999999808338758
2000.8019730274982 0.9999999807857355
2000.8039738304715 0.999999980737514
2000.8059746354456 0.999999980689292
2000.8079754424211 0.9999999806410695
2000.8099762513964 0.9999999805928467
2000.8119770623734 0.9999999805446232
2000.8139778753505 0.9999999804963995
2000.8159786903286 0.9999999804481753
2000.8179795073077 0.9999999803999505
2000.8199803262876 0.9999999803517254
2000.8219811472686 0.9999999803034997
2000.8239819702499 0.9999999802552737
2000.8259827952318 0.9999999802070472
2000.8279836222155 0.9999999801588202
2000.8299844511994 0.9999999801105928
2000.831985282184 0.9999999800623649
2000.8339861151694 0.9999999800141365
2000.835986950156 0.9999999799659076
2000.8379877871434 0.9999999799176784
2000.8399886261318 0.9999999798694489
2000.8419894671204 0.999999979821219
2000.84399031011 0.9999999797729887
2000.8459911551006 0.999999979724758
2000.8479920020925 0.9999999796765268
2000.8499928510848 0.9999999796282951
2000.8519937020778 0.999999979580063
2000.853994555072 0.9999999795318305
2000.855995410067 0.9999999794835973
2000.8579962670626 0.9999999794353639
2000.8599971260594 0.9999999793871299
2000.861997987057 0.9999999793388954
2000.8639988500552 0.9999999792906605
2000.8659997150544 0.9999999792424252
2000.8680005820545 0.9999999791941894
2000.8700014510555 0.9999999791459531
2000.872002322057 0.9999999790977163
2000.8740031950601 0.9999999790494793
2000.8760040700631 0.9999999790012418
2000.8780049470681 0.9999999789530041
2000.8800058260733 0.9999999789047658
2000.8820067070794 0.9999999788565271
2000.8840075900869 0.999999978808288
2000.886008475095 0.9999999787600482
2000.8880093621042 0.9999999787118081
2000.8900102511134 0.9999999786635675
2000.892011142124 0.9999999786153264
2000.8940120351353 0.9999999785670849
2000.8960129301477 0.9999999785188428
2000.8980138271609 0.9999999784706003
2000.900014726175 0.9999999784223571
2000.90201562719 0.9999999783741135
2000.904016530206 0.9999999783258692
2000.906017435223 0.9999999782776243
2000.908018342241 0.9999999782293785
2000.9100192512599 0.999999978181132
2000.9120201622795 0.999999978132884
2000.9140210752998 0.9999999780846347
2000.916021990322 0.9999999780363833
2000.918022907344 0.9999999779881296
2000.9200238263672 0.9999999779398733
2000.9220247473918 0.9999999778916158
2000.9240256704163 0.9999999778433593
2000.9260265954426 0.9999999777951071
2000.9280275224694 0.9999999777468611
2000.9300284514975 0.9999999776986204
2000.9320293825265 0.9999999776503818
2000.9340303155564 0.9999999776021427
2000.9360312505873 0.9999999775539011
2000.9380321876183 0.9999999775056572
2000.9400331266515 0.999999977457411
2000.9420340676843 0.9999999774091634
2000.9440350107188 0.9999999773609142
2000.9460359557547 0.9999999773126641
2000.9480369027913 0.9999999772644133
2000.9500378518283 0.9999999772161615
2000.9520388028668 0.9999999771679092
2000.9540397559056 0.9999999771196564
2000.9560407109461 0.999999977071403
2000.9580416679873 0.999999977023149
2000.9600426270292 0.9999999769748946
2000.962043588072 0.9999999769266397
2000.9640445511163 0.9999999768783843
2000.966045516161 0.9999999768301283
2000.9680464832072 0.999999976781872
2000.9700474522538 0.9999999767336151
2000.9720484233017 0.9999999766853577
2000.9740493963504 0.9999999766370998
2000.9760503713999 0.9999999765888417
2000.9780513484511 0.9999999765405827
2000.9800523275028 0.9999999764923234
2000.9820533085556 0.9999999764440636
2000.9840542916097 0.9999999763958031
2000.9860552766643 0.9999999763475422
2000.9880562637197 0.999999976299281
2000.9900572527768 0.9999999762510193
2000.992058243834 0.9999999762027574
2000.9940592368928 0.9999999761544951
2000.996060231953 0.9999999761062326
2000.9980612290135 0.9999999760579696
2001.0000622280747 0.9999999760097061
2001.0020632291375 0.99999997610494
2001.004064232201 0.9999999761042659
2001.0060652372658 0.999999976103593
2001.0080662443318 0.9999999761029209
2001.0100672533981 0.9999999761022496
2001.0120682644658 0.9999999761015789
2001.0140692775344 0.9999999761009087
2001.0160702926044 0.9999999761002389
2001.018071309675 0.9999999760995695
2001.0200723287464 0.9999999760988996
2001.0220733498195 0.9999999760982293
2001.0240743728934 0.9999999760975585
2001.0260753979683 0.9999999760968877
2001.0280764250442 0.9999999760962172
2001.0300774541208 0.9999999760955472
2001.0320784851986 0.9999999760948782
2001.0340795182774 0.9999999760942099
2001.0360805533578 0.9999999760935422
2001.0380815904384 0.9999999760928748
2001.0400826295206 0.9999999760922075
2001.0420836706037 0.9999999760915403
2001.0440847136879 0.9999999760908735
2001.046085758773 0.9999999760902066
2001.0480868058594 0.99999997608954
2001.0500878549465 0.9999999760888734
2001.052088906035 0.9999999760882066
2001.054089959124 0.9999999760875392
2001.0560910142144 0.9999999760868712
