#P (bar)        	T (K)           	n_<tot> (cm-3)  	n_g (cm-3)      	m (g/mol)       	H2O1            	C1O2            	C1O1            	C1H4            	H3N1            	H2              	He              	N2              
1.0000000000e-10	5.0364387643e+02	2.5706598163e+09	1.4381134875e+09	2.8628954430e+01	1.2355541057e-14	3.2455721258e-11	4.7806503332e-01	3.6157808726e-02	2.4868820564e-14	2.3089649390e-02	1.6375157884e-02	6.3257930007e-02
1.2388629240e-10	5.0364387661e+02	3.1848649203e+09	1.7816254796e+09	2.8630480754e+01	1.8904122609e-14	4.9704154573e-11	4.7808828492e-01	3.6175815190e-02	3.0769055038e-14	2.3069160463e-02	1.6376030998e-02	6.3262019763e-02
1.5347813444e-10	5.0364387683e+02	3.9458068087e+09	2.2071897501e+09	2.8631901123e+01	2.8934946867e-14	7.6140496946e-11	4.7810882591e-01	3.6191179619e-02	3.8075261016e-14	2.3051202986e-02	1.6376843423e-02	6.3265739980e-02
1.9013837041e-10	5.0364387711e+02	4.8885465634e+09	2.7344055461e+09	2.8633264658e+01	4.4292363806e-14	1.1664540408e-10	4.7812708273e-01	3.6205298184e-02	4.7117727885e-14	2.3033737891e-02	1.6377623197e-02	6.3269224424e-02
2.3555537753e-10	5.0364387746e+02	6.0565241438e+09	3.3875536479e+09	2.8634612416e+01	6.7790656304e-14	1.7867930233e-10	4.7814332010e-01	3.6219272465e-02	5.8303253760e-14	2.3015135185e-02	1.6378394160e-02	6.3272585683e-02
2.9182082376e-10	5.0364387789e+02	7.5035636403e+09	4.1967146138e+09	2.8635987889e+01	1.0371582405e-13	2.7363067788e-10	4.7815782847e-01	3.6234115809e-02	7.2131384752e-14	2.2993831784e-02	1.6379180735e-02	6.3275935603e-02
3.6152599901e-10	5.0364387842e+02	9.2963498351e+09	5.1991541322e+09	2.8637414304e+01	1.5859870840e-13	4.1889059218e-10	4.7817075505e-01	3.6250407461e-02	8.9218519868e-14	2.2968989525e-02	1.6379996563e-02	6.3279340432e-02
4.4788115623e-10	5.0364387907e+02	1.1517499833e+10	6.4410392821e+09	2.8638898056e+01	2.4239297964e-13	6.4102066476e-10	4.7818227617e-01	3.6268343974e-02	1.1032637811e-13	2.2940417408e-02	1.6380845242e-02	6.3282825473e-02
5.5486335881e-10	5.0364387989e+02	1.4269360164e+10	7.9795647457e+09	2.8640416783e+01	3.7030289954e-13	9.8065160100e-10	4.7819256336e-01	3.6287543523e-02	1.3640184781e-13	2.2908941115e-02	1.6381713919e-02	6.3286350371e-02
6.8739964312e-10	5.0364388090e+02	1.7678708875e+10	9.8855868932e+09	2.8641919684e+01	5.6562072939e-13	1.5000613247e-09	4.7820178772e-01	3.6307062667e-02	1.6862766369e-13	2.2876380827e-02	1.6382573487e-02	6.3289810245e-02
8.5159393183e-10	5.0364388215e+02	2.1902580424e+10	1.2246887054e+10	2.8643336769e+01	8.6413421515e-13	2.2949043347e-09	4.7821006128e-01	3.6325587480e-02	2.0848505570e-13	2.2845208856e-02	1.6383384303e-02	6.3293057592e-02
1.0550081484e-09	5.0364388369e+02	2.7135508604e+10	1.5172214258e+10	2.8644618061e+01	1.3208210561e-12	3.5120863194e-09	4.7821761893e-01	3.6342122320e-02	2.5781712986e-13	2.2817295721e-02	1.6384116991e-02	6.3295984666e-02
1.3070104796e-09	5.0364388561e+02	3.3618473977e+10	1.8796293648e+10	2.8645724643e+01	2.0202539500e-12	5.3774376861e-09	4.7822445545e-01	3.6355895510e-02	3.1891917218e-13	2.2794083758e-02	1.6384750154e-02	6.3298511793e-02
1.6192068245e-09	5.0364388799e+02	4.1650056010e+10	2.3286031199e+10	2.8646670470e+01	3.0921076795e-12	8.2373312955e-09	4.7823070950e-01	3.6367023969e-02	3.9461719356e-13	2.2775362499e-02	1.6385291020e-02	6.3300670871e-02
2.0059753011e-09	5.0364389093e+02	5.1600196450e+10	2.8848200531e+10	2.8647495785e+01	4.7350690846e-12	1.2622751643e-08	4.7823629786e-01	3.6376028371e-02	4.8839316424e-13	2.2760120395e-02	1.6385763067e-02	6.3302554639e-02
2.4851284270e-09	5.0364389458e+02	6.3927357964e+10	3.5738965803e+10	2.8648297201e+01	7.2520434422e-12	1.9344856625e-08	4.7824106182e-01	3.6384177943e-02	6.0449038346e-13	2.2745812294e-02	1.6386221623e-02	6.3304378795e-02
3.0787334695e-09	5.0364389909e+02	7.9199977665e+10	4.4275679278e+10	2.8649289949e+01	1.1099365883e-11	2.9632657222e-08	4.7824470060e-01	3.6394208747e-02	7.4795285359e-13	2.2726753800e-02	1.6386789147e-02	6.3306618676e-02
3.8141287483e-09	5.0364390469e+02	9.8123640357e+10	5.4851496883e+10	2.8650961760e+01	1.6944131356e-11	4.5310334185e-08	4.7824629764e-01	3.6412163967e-02	9.2438748187e-13	2.2689936766e-02	1.6387745437e-02	6.3310355206e-02
4.7251826936e-09	5.0364391162e+02	1.2157699259e+11	6.7953484879e+10	2.8654557007e+01	2.5672889942e-11	6.8920560322e-08	4.7824426991e-01	3.6453686643e-02	1.1385645019e-12	2.2601397986e-02	1.6389801742e-02	6.3318336468e-02
5.8538536482e-09	5.0364392021e+02	1.5066171027e+11	8.4185051537e+10	2.8663020121e+01	3.8149021696e-11	1.0342370423e-07	4.7823496222e-01	3.6555859072e-02	1.3900751738e-12	2.2380208990e-02	1.6394642650e-02	6.3337067498e-02
7.2521222472e-09	5.0364393084e+02	1.8677379639e+11	1.0429373690e+11	2.8682153540e+01	5.4308661071e-11	1.5063915396e-07	4.7820764875e-01	3.6789306400e-02	1.6644506490e-12	2.1872939787e-02	1.6405586699e-02	6.3379363103e-02
8.9843853723e-09	5.0364394402e+02	2.3169000389e+11	1.2920564047e+11	2.8719697631e+01	7.1968267659e-11	2.0875270297e-07	4.7812529456e-01	3.7233100409e-02	1.9290002897e-12	2.0912693153e-02	1.6427061171e-02	6.3462320209e-02
1.1130421933e-08	5.0364396035e+02	2.8765292756e+11	1.6006807236e+11	2.8781811486e+01	8.7653994500e-11	2.7281088738e-07	4.7789021043e-01	3.7904677224e-02	2.1508268748e-12	1.9480375257e-02	1.6462589012e-02	6.3599548452e-02
1.3789067061e-08	5.0364398058e+02	3.5748339804e+11	1.9830239220e+11	2.8872338666e+01	9.9194754847e-11	3.3871911938e-07	4.7733888720e-01	3.8746511460e-02	2.3182834464e-12	1.7735148065e-02	1.6514368067e-02	6.3799546975e-02
1.7082763938e-08	5.0364400564e+02	4.4469690720e+11	2.4566946921e+11	2.8991251504e+01	1.0640061357e-10	4.0505782464e-07	4.7635290797e-01	3.9679329100e-02	2.4372593859e-12	1.5875036338e-02	1.6582383796e-02	6.4062267064e-02
2.1163202882e-08	5.0364403669e+02	5.5346031085e+11	3.0435077820e+11	2.9125011912e+01	1.1004988884e-10	4.7243768630e-07	4.7508828202e-01	4.0625537545e-02	2.5172070708e-12	1.4040350211e-02	1.6658892054e-02	6.4357797652e-02
2.6218307404e-08	5.0364407515e+02	6.8854224695e+11	3.7704886621e+11	2.9247382199e+01	1.1110619627e-10	5.4278314876e-07	4.7396372677e-01	4.1512416580e-02	2.5651224793e-12	1.2308787189e-02	1.6728885012e-02	6.4628162895e-02
3.2480888972e-08	5.0364412280e+02	8.5575516874e+11	4.6711181668e+11	2.9341528137e+01	1.1046976781e-10	6.1858508976e-07	4.7325238357e-01	4.2296372457e-02	2.5879013307e-12	1.0722465276e-02	1.6782734670e-02	6.4836167412e-02
4.0239369086e-08	5.0364418183e+02	1.0625987538e+12	5.7868744322e+11	2.9408935074e+01	1.0892748591e-10	7.0248810294e-07	4.7291480038e-01	4.2971000384e-02	2.5940883059e-12	9.3033374859e-03	1.6821290023e-02	6.4985091762e-02
4.9851062446e-08	5.0364425496e+02	1.3186100159e+12	7.1691431390e+11	2.9457994411e+01	1.0715771601e-10	7.9770015462e-07	4.7279834661e-01	4.3547071746e-02	2.5926010841e-12	8.0578000753e-03	1.6849350575e-02	6.5093477423e-02
6.1758632986e-08	5.0364434555e+02	1.6356535048e+12	8.8815840340e+11	2.9495444173e+01	1.0577807158e-10	9.0879630513e-07	4.7278600914e-01	4.4036995570e-02	2.5919924377e-12	6.9815159738e-03	1.6870771277e-02	6.5176215362e-02
7.6510480643e-08	5.0364445779e+02	2.0283916315e+12	1.1003062714e+12	2.9525161802e+01	1.0542233822e-10	1.0427622765e-06	4.7281509712e-01	4.4450953914e-02	2.6010010881e-12	6.0644829514e-03	1.6887769154e-02	6.5241870779e-02
9.4785997765e-08	5.0364459684e+02	2.5149417624e+12	1.3631282683e+12	2.9549169298e+01	1.0689120648e-10	1.2109686633e-06	4.7285650760e-01	4.4796705951e-02	2.6301880117e-12	5.2953225745e-03	1.6901501057e-02	6.5294912026e-02
1.1742685835e-07	5.0364476910e+02	3.1177070772e+12	1.6887284947e+12	2.9568517306e+01	1.1138510003e-10	1.4328662599e-06	4.7289771303e-01	4.5080022601e-02	2.6941614062e-12	4.6638140629e-03	1.6912567761e-02	6.5337659916e-02
1.4547578108e-07	5.0364498251e+02	3.8643995923e+12	2.0921022343e+12	2.9583748154e+01	1.2094689236e-10	1.7433528313e-06	4.7293346271e-01	4.5304738758e-02	2.8150434073e-12	4.1625579825e-03	1.6921279514e-02	6.5371312789e-02
1.8022455153e-07	5.0364524689e+02	4.7893047799e+12	2.5918265307e+12	2.9595154986e+01	1.3919062638e-10	2.2058094211e-06	4.7296158887e-01	4.5473435271e-02	3.0260334634e-12	3.7863132876e-03	1.6927804106e-02	6.5396518646e-02
2.2327351488e-07	5.0364557442e+02	5.9348821770e+12	3.2109157062e+12	2.9603105473e+01	1.7188902465e-10	2.9263028846e-06	4.7298168807e-01	4.5590889274e-02	3.3674870732e-12	3.5246759758e-03	1.6932351653e-02	6.5414089148e-02
2.7660527949e-07	5.0364598019e+02	7.3538610920e+12	3.9778812157e+12	2.9608587391e+01	2.2513503147e-10	4.0384633774e-06	4.7299550649e-01	4.5671650794e-02	3.8576818036e-12	3.3452349993e-03	1.6935487223e-02	6.5426206268e-02
3.4267602534e-07	5.0364648287e+02	9.1119264407e+12	4.9280446355e+12	2.9613493825e+01	2.9764067147e-10	5.6083896438e-06	4.7300739851e-01	4.5744058373e-02	4.4394735585e-12	3.1846419916e-03	1.6938293616e-02	6.5437051538e-02
4.2452862274e-07	5.0364710563e+02	1.1290818601e+13	6.1051642377e+12	2.9619802293e+01	3.7219653840e-10	7.5038036623e-06	4.7302229103e-01	4.5837761525e-02	4.9700716156e-12	2.9765006353e-03	1.6941901985e-02	6.5450993334e-02
5.2593277089e-07	5.0364787714e+02	1.3991725179e+13	7.5634500329e+12	2.9628209118e+01	4.2399194323e-10	9.4326080445e-06	4.7304222015e-01	4.5963141488e-02	5.3126357195e-12	2.6974470557e-03	1.6946710562e-02	6.5469569684e-02
6.5155861036e-07	5.0364883293e+02	1.7339512706e+13	9.3700600414e+12	2.9637979384e+01	4.4119250707e-10	1.1161148345e-05	4.7306565039e-01	4.6109075214e-02	5.4288244220e-12	2.3722479092e-03	1.6952298949e-02	6.5491157030e-02
8.0719180519e-07	5.0365001702e+02	2.1488489933e+13	1.1608192690e+13	2.9647997557e+01	4.2821596445e-10	1.2607074424e-05	4.7308991684e-01	4.6258749167e-02	5.3580053881e-12	2.0384589853e-03	1.6958029224e-02	6.5513291536e-02
1.0000000000e-06	5.0365148392e+02	2.6629717027e+13	1.4380917653e+13	2.9657465220e+01	3.9561079761e-10	1.3780118070e-05	4.7311305269e-01	4.6400145358e-02	5.1587510945e-12	1.7229707557e-03	1.6963444580e-02	6.5534209149e-02
1.2388629240e-06	5.0365330120e+02	3.2999916348e+13	1.7815921410e+13	2.9665975119e+01	3.5308085194e-10	1.4720668567e-05	4.7313401200e-01	4.6527136045e-02	4.8810723917e-12	1.4395068968e-03	1.6968312023e-02	6.5553010072e-02
1.5347813444e-06	5.0365555253e+02	4.0892404748e+13	2.2071385832e+13	2.9673387351e+01	3.0750577526e-10	1.5472366470e-05	4.7315237574e-01	4.6637610969e-02	4.5613378418e-12	1.1927849148e-03	1.6972551763e-02	6.5569385875e-02
1.9013837041e-06	5.0365834157e+02	5.0670604280e+13	2.7343270173e+13	2.9679713757e+01	2.6311445028e-10	1.6072993653e-05	4.7316814059e-01	4.6731742475e-02	4.2242327273e-12	9.8243820720e-04	1.6976170412e-02	6.5583362246e-02
2.3555537753e-06	5.0366179674e+02	6.2784768971e+13	3.3874331255e+13	2.9685040677e+01	2.2221393039e-10	1.6553475324e-05	4.7318147879e-01	4.6810812825e-02	3.8859924192e-12	8.0560742756e-04	1.6979217263e-02	6.5595129647e-02
2.9182082376e-06	5.0366607712e+02	7.7792707369e+13	4.1965296423e+13	2.9689485394e+01	1.8585362898e-10	1.6938841466e-05	4.7319257636e-01	4.6876542238e-02	3.5570058243e-12	6.5842144668e-04	1.6981759748e-02	6.5604948117e-02
3.6152599901e-06	5.0367137977e+02	9.6385470646e+13	5.1988702491e+13	2.9693177310e+01	1.5429565266e-10	1.7248182373e-05	4.7320167035e-01	4.6930787897e-02	3.2434901752e-12	5.3677472920e-04	1.6983871244e-02	6.5613101752e-02
4.4788115623e-06	5.0367794878e+02	1.1941918216e+14	6.4406035982e+13	2.9696249328e+01	1.2738039744e-10	1.7497626713e-05	4.7320864707e-01	4.6975284487e-02	2.9491020223e-12	4.3677519451e-04	1.6985628512e-02	6.5619886199e-02
5.5486335881e-06	5.0368608651e+02	1.4795460384e+14	7.9788960941e+13	2.9698858204e+01	1.0470794079e-10	1.7699168146e-05	4.7321289647e-01	4.7011687480e-02	2.6755304831e-12	3.5489410289e-04	1.6987120787e-02	6.5625646588e-02
6.8739964312e-06	5.0369616747e+02	1.8330652450e+14	9.8845607121e+13	2.9701243256e+01	8.5788898764e-11	1.7862637399e-05	4.7321202528e-01	4.7041585518e-02	2.4233200560e-12	2.8805438130e-04	1.6988484957e-02	6.5630911685e-02
8.5159393183e-06	5.0370865552e+02	2.2710641559e+14	1.2245312190e+14	2.9703909994e+01	7.0117120486e-11	1.7996030682e-05	4.7319863005e-01	4.7066798931e-02	2.1922848219e-12	2.3362652538e-04	1.6990010379e-02	6.5636799033e-02
1.0550081484e-05	5.0372412514e+02	2.8138534575e+14	1.5169797379e+14	2.9708161362e+01	5.7209286126e-11	1.8105180440e-05	4.7315100325e-01	4.7090259891e-02	1.9818113875e-12	1.8939502425e-04	1.6992441856e-02	6.5646186428e-02
1.3070104796e-05	5.0374328780e+02	3.4869551271e+14	1.8792584630e+14	2.9717612940e+01	4.6636292372e-11	1.8195102295e-05	4.7300608859e-01	4.7118383012e-02	1.7913602692e-12	1.5352710638e-04	1.6997847977e-02	6.5667064681e-02
1.6192068245e-05	5.0376702454e+02	4.3232665692e+14	2.3280339359e+14	2.9742453060e+01	3.8029837317e-11	1.8268038553e-05	4.7258421379e-01	4.7167901084e-02	1.6209408044e-12	1.2452798886e-04	1.7012055860e-02	6.5721945813e-02
2.0059753011e-05	5.0379642621e+02	5.3679181463e+14	2.8839466114e+14	2.9810739106e+01	3.1102397054e-11	1.8322831016e-05	4.7138864807e-01	4.7283767741e-02	1.4724152727e-12	1.0122687727e-04	1.7051113883e-02	6.5872828642e-02
2.4851284270e-05	5.0383284335e+02	6.6904959858e+14	3.5725562878e+14	2.9993925161e+01	2.5663351668e-11	1.8349746407e-05	4.6815317196e-01	4.7579738800e-02	1.3517659123e-12	8.2773202893e-05	1.7155891713e-02	6.6277603885e-02
3.0787334695e-05	5.0387794771e+02	8.4113488830e+14	4.4255113462e+14	3.0440812657e+01	2.1628051594e-11	1.8325686327e-05	4.6024009329e-01	4.8292309802e-02	1.2718265751e-12	6.8610779240e-05	1.7411500054e-02	6.7265077012e-02
3.8141287483e-05	5.0393380819e+02	1.0729443700e+15	5.4819941864e+14	3.1346760135e+01	1.8943402395e-11	1.8222755555e-05	4.4418622933e-01	4.9731981626e-02	1.2495832533e-12	5.8264558162e-05	1.7929679402e-02	6.9266931477e-02
4.7251826936e-05	5.0400298462e+02	1.3898333540e+15	6.7905071947e+14	3.2780418950e+01	1.7435347974e-11	1.8048398896e-05	4.1877495663e-01	5.2008337211e-02	1.2935721006e-12	5.0980531581e-05	1.8749696163e-02	7.2434865148e-02
5.8538536482e-05	5.0408864328e+02	1.8160977687e+15	8.4110780801e+14	3.4581314309e+01	1.6816156017e-11	1.7879942629e-05	3.8685173118e-01	5.4867264451e-02	1.3976625195e-12	4.5776129972e-05	1.9779762980e-02	7.6414279842e-02
7.2521222472e-05	5.0419469906e+02	2.3740220248e+15	1.0417980933e+15	3.6496824284e+01	1.6856682648e-11	1.7850456855e-05	3.5289542966e-01	5.7908206188e-02	1.5507680425e-12	4.1844571349e-05	2.0875387039e-02	8.0646961783e-02
8.9843853723e-05	5.0432599022e+02	3.0872582797e+15	1.2903090386e+15	3.8320668401e+01	1.7477707839e-11	1.8131573871e-05	3.2056332341e-01	6.0804035223e-02	1.7458380188e-12	3.8704775781e-05	2.1918580048e-02	8.4677092060e-02
1.1130421933e-04	5.0448849277e+02	3.9828697340e+15	1.5980011248e+15	3.9918373965e+01	1.8749985821e-11	1.8949686120e-05	2.9223916923e-01	6.3341444989e-02	1.9815933650e-12	3.6109155557e-05	2.2832427914e-02	8.8207530486e-02
1.3789067061e-04	5.0468958269e+02	5.0915334300e+15	1.9789155471e+15	4.1207392803e+01	2.0850018041e-11	2.0606889467e-05	2.6938620214e-01	6.5389489834e-02	2.2590740570e-12	3.3908997471e-05	2.3569714780e-02	9.1055869508e-02
1.7082763938e-04	5.0493835587e+02	6.4481946078e+15	2.4503972435e+15	4.2145908733e+01	2.3887688756e-11	2.3418061350e-05	2.5274560271e-01	6.6881690869e-02	2.5705732777e-12	3.1925109973e-05	2.4106522298e-02	9.3129705124e-02
2.1163202882e-04	5.0524601702e+02	8.0975049595e+15	3.0338577512e+15	4.2747407311e+01	2.7381704954e-11	2.7356684514e-05	2.4207861411e-01	6.7838933256e-02	2.8762022866e-12	2.9832098810e-05	2.4450564037e-02	9.4458833887e-02
2.6218307404e-04	5.0562634992e+02	1.0104172255e+16	3.7557067099e+15	4.3088644753e+01	2.9810861221e-11	3.1566715231e-05	2.3602593071e-01	6.8382121082e-02	3.0952918954e-12	2.7249280767e-05	2.4645742305e-02	9.5212859257e-02
3.2480888972e-04	5.0609628295e+02	1.2557342880e+16	4.6484854579e+15	4.3265331172e+01	2.9799504014e-11	3.4845215327e-05	2.3289232965e-01	6.8662294375e-02	3.1681779110e-12	2.4136387532e-05	2.4746800869e-02	9.5603270515e-02
4.0239369086e-04	5.0667656405e+02	1.5569249896e+16	5.7522408684e+15	4.3349528505e+01	2.7709010389e-11	3.6810020092e-05	2.3140032472e-01	6.8793470857e-02	3.1191767848e-12	2.0882833351e-05	2.4794958536e-02	9.5789307746e-02
4.9851062446e-04	5.0739255835e+02	1.9277585787e+16	7.1161819294e+15	4.3386973231e+01	2.4819007652e-11	3.7857265833e-05	2.3073826832e-01	6.8848336698e-02	3.0162258333e-12	1.7896396993e-05	2.4816375790e-02	9.5872036823e-02
6.1758632986e-04	5.0827517983e+02	2.3849729348e+16	8.8006649857e+15	4.3403196513e+01	2.2022690625e-11	3.8453175665e-05	2.3045302143e-01	6.8867630070e-02	2.9119906465e-12	1.5362258608e-05	2.4825654437e-02	9.5907869443e-02
7.6510480643e-04	5.0936196194e+02	2.9488388681e+16	1.0879555147e+16	4.3410386634e+01	1.9679427308e-11	3.8876571840e-05	2.3032799518e-01	6.8870773413e-02	2.8348145747e-12	1.3302352861e-05	2.4829767019e-02	9.5923741762e-02
9.4785997765e-04	5.1069826304e+02	3.6439354086e+16	1.3443010028e+16	4.3413809512e+01	1.7878354472e-11	3.9260669259e-05	2.3026981947e-01	6.8866194933e-02	2.8000080137e-12	1.1674775263e-05	2.4831724635e-02	9.5931286645e-02
1.1742685835e-03	5.1233858621e+02	4.5000742512e+16	1.6600726466e+16	4.3415652721e+01	1.6623722626e-11	3.9669716525e-05	2.3023962058e-01	6.8857410105e-02	2.8196012019e-12	1.0426555042e-05	2.4832778864e-02	9.5935338737e-02
1.4547578108e-03	5.1434796969e+02	5.5533452317e+16	2.0485680031e+16	4.3416822645e+01	1.5914119537e-11	4.0138461972e-05	2.3022128641e-01	6.8845969845e-02	2.9079763334e-12	9.5129489687e-06	2.4833448259e-02	9.5937900775e-02
1.8022455152e-03	5.1680337155e+02	6.8472844874e+16	2.5258370685e+16	4.3417697436e+01	1.5778929219e-11	4.0689550388e-05	2.3020818187e-01	6.8832724630e-02	3.0863276083e-12	8.9043440152e-06	2.4833948289e-02	9.5939804910e-02
2.2327351488e-03	5.1979493011e+02	8.4341673861e+16	3.1111567112e+16	4.3418426318e+01	1.6308084879e-11	4.1343879968e-05	2.3019740958e-01	6.8818271988e-02	3.3884702919e-12	8.5904258744e-06	2.4834365574e-02	9.5941384280e-02
2.7660527949e-03	5.2342693288e+02	1.0376425519e+17	3.8275521531e+16	4.3419058827e+01	1.7688757239e-11	4.2119147149e-05	2.3018814643e-01	6.8803297996e-02	3.8698253350e-12	8.5845834840e-06	2.4834727121e-02	9.5942742718e-02
3.4267602534e-03	5.2781827608e+02	1.2748172227e+17	4.7023615146e+16	4.3419583842e+01	2.0279855655e-11	4.3035429516e-05	2.3018030195e-01	6.8788528865e-02	4.6244383569e-12	8.9332683451e-06	2.4835027349e-02	9.5943856776e-02
4.2452862274e-03	5.3310215727e+02	1.5636831752e+17	5.7678406583e+16	4.3419943859e+01	2.4751947973e-11	4.4112362379e-05	2.3017468281e-01	6.8774778331e-02	5.8166914646e-12	9.7321379275e-06	2.4835233160e-02	9.5944596692e-02
5.2593277089e-03	5.3942473153e+02	1.9144859259e+17	7.0618110930e+16	4.3420001292e+01	3.2379923785e-11	4.5369925413e-05	2.3017336141e-01	6.8762751832e-02	7.7444497013e-12	1.1156694395e-05	2.4835266306e-02	9.5944657314e-02
6.5155861036e-03	5.4694249713e+02	2.3391525007e+17	8.6283655578e+16	4.3419393089e+01	4.5661581476e-11	4.6823201670e-05	2.3018252328e-01	6.8752684855e-02	1.0967372728e-11	1.3518418080e-05	2.4834918194e-02	9.5943229704e-02
8.0719180519e-03	5.5581827887e+02	2.8514473475e+17	1.0518665305e+17	4.3416865931e+01	6.9673022765e-11	4.8473651661e-05	2.3022376493e-01	6.8742945913e-02	1.6575327366e-11	1.7369074055e-05	2.4833473064e-02	9.5937543274e-02
1.0000000000e-02	5.6621584782e+02	3.4668934890e+17	1.2791889425e+17	4.3406978128e+01	1.1491208003e-10	5.0250021317e-05	2.3039314201e-01	6.8724390031e-02	2.6734959500e-11	2.3680074097e-05	2.4827817424e-02	9.5915562674e-02
1.2388629240e-02	5.7829343552e+02	4.2008819132e+17	1.5516426576e+17	4.3361322115e+01	2.0147417894e-10	5.1745260389e-05	2.3119388458e-01	6.8648934563e-02	4.5560725799e-11	3.4040609361e-05	2.4801704016e-02	9.5814502920e-02
1.5347813444e-02	5.9219661660e+02	5.0545278430e+17	1.8771427791e+17	4.3125788072e+01	3.4819974366e-10	5.1277375947e-05	2.3536056982e-01	6.8261067086e-02	7.8177279333e-11	5.0006024729e-05	2.4666985663e-02	9.5293764520e-02
