Atmospheric Species: CH4
Metallicity: 1
C/O_Ratio: 1.0
Wavelength[nm] Flux_variation
2199.999397930935 0.9997331807339244
2200.001597931433 0.999760030923879
2200.003797934131 0.9997843402058771
2200.0059979390285 0.999811037513925
2200.0081979461265 0.9998467473853502
2200.010397955424 0.9998925294136823
2200.0125979669224 0.9999379376702985
2200.01479798062 0.9999621387948631
2200.016997996518 0.9999591758081237
2200.019198014616 0.9999393766481979
2200.021398034914 0.9999108954771515
2200.023598057412 0.9998750844949146
2200.0257980821098 0.9998372500056524
2200.027998109008 0.9998075093059893
2200.030198138106 0.9997924952092266
2200.032398169404 0.9997946291980555
2200.034598202902 0.9998137976478023
2200.0367982386 0.9998474535807859
2200.0389982764987 0.9998879145682714
2200.041198316597 0.9999191163598192
2200.043398358895 0.9999329940561281
2200.0455984033933 0.999941187582571
2200.0477984500917 0.9999523287520662
2200.04999849899 0.999965430763417
2200.052198550088 0.9999730306073285
2200.0543986033867 0.9999671329657008
2200.0565986588854 0.9999497260282277
2200.058798716584 0.9999296536593331
2200.0609987764824 0.999913238161381
2200.0631988385812 0.999903899056453
2200.06539890288 0.9999033084538506
2200.0675989693787 0.9999109264271087
2200.0697990380777 0.9999228134564593
2200.071999108977 0.999928259490047
2200.074199182076 0.99990283809307
2200.076399257375 0.999839335579006
2200.078599334874 0.9997712904981582
2200.0807994145734 0.9997165996853924
2200.082999496473 0.9996798300881179
2200.0851995805724 0.9996624516067887
2200.087399666872 0.9996648725361846
2200.0895997553716 0.9996869428928928
2200.0917998460714 0.999727767840283
2200.093999938971 0.9997847695961328
2200.096200034071 0.9998516287334478
2200.098400131371 0.999913904515921
2200.100600230871 0.9999527673181718
2200.1028003325714 0.9999664917752215
2200.1050004364715 0.9999654690654827
2200.107200542572 0.9999578502479675
2200.1094006508724 0.9999494380354327
2200.111600761373 0.9999445141776981
2200.113800874074 0.9999441420415355
2200.116000988975 0.9999444571965439
2200.118201106076 0.9999390229123272
2200.120401225377 0.9999279296471398
2200.1226013468786 0.9999189341373127
2200.1248014705798 0.99991838137202
2200.1270015964815 0.999927039436524
2200.129201724583 0.9999396322407061
2200.1314018548846 0.9999480751163916
2200.1336019873866 0.9999489454473883
2200.1358021220885 0.9999421197026738
2200.1380022589906 0.9999281970256841
2200.1402023980927 0.9999132383321212
2200.1424025393953 0.9999050280058513
2200.1446026828976 0.9999058694160412
2200.1468028286004 0.9999041163886037
2200.149002976503 0.9998724656902306
2200.151203126606 0.9998204007146584
2200.1534032789095 0.9997753889097022
2200.1556034334126 0.9997463326519886
2200.157803590116 0.999735390512993
2200.16000374902 0.9997431279577037
2200.162203910123 0.9997691987346521
2200.1644040734272 0.9998117535488515
2200.1666042389315 0.9998644004844074
2200.168804406636 0.9999086896491927
2200.17100457654 0.9999263465346433
2200.173204748645 0.9999283585036833
2200.1754049229494 0.9999263375658788
2200.1776050994545 0.9999121175062375
2200.179805278159 0.9998759384414272
2200.182005459065 0.9998335133237535
2200.18420564217 0.9997989801341786
2200.186405827476 0.9997690003040562
2200.188606014982 0.9997301328952983
2200.1908062046878 0.9996836214034367
2200.193006396594 0.9996449521773508
2200.1952065907003 0.9996230504865016
2200.197406787007 0.9996204892115579
2200.1996069855136 0.9996378068569242
2200.201807186221 0.9996748970505355
2200.204007389128 0.999730726225638
2200.2062075942354 0.9998014841710615
2200.208407801543 0.9998696775901482
2200.2106080110507 0.9998969405074176
2200.2128082227587 0.9998947909796246
2200.215008436667 0.9998837914778463
2200.2172086527758 0.9998623255917011
2200.2194088710844 0.9998400556130148
2200.221609091593 0.999829372468736
2200.2238093143023 0.9998351208072321
2200.2260095392116 0.9998570883447948
2200.228209766321 0.9998888479438813
2200.230409995631 0.9999118042211419
2200.232610227141 0.9999143830313922
2200.2348104608513 0.9999130561277545
2200.237010696762 0.9999208403890683
2200.2392109348725 0.9999389101555223
2200.2414111751837 0.9999611726906144
2200.243611417695 0.9999783342387109
2200.245811662406 0.9999857121965035
2200.248011909318 0.999982739846403
2200.25021215843 0.9999672322060987
2200.2524124097417 0.9999398001560369
2200.254612663254 0.999910435666801
2200.256812918967 0.9998899245523026
2200.2590131768798 0.9998830670542076
2200.2612134369933 0.9998904965676927
2200.2634136993065 0.9999099884293683
2200.26561396382 0.9999354603973515
2200.2678142305344 0.9999565906614492
2200.2700144994487 0.9999633930410545
2200.272214770563 0.9999403214176166
2200.274415043878 0.9998758638847557
2200.2766153193934 0.9998015993741541
2200.2788155971084 0.9997396158639918
2200.281015877024 0.9996950840544435
2200.28321615914 0.9996696916511293
2200.2854164434566 0.9996639848759292
2200.287616729973 0.9996777537838182
2200.2898170186895 0.9997093023331619
2200.2920173096068 0.999751942174064
2200.294217602724 0.9997893537250736
2200.296417898042 0.9998125339621061
2200.29861819556 0.9998356021904012
2200.3008184952782 0.9998650385693681
2200.3030187971967 0.9998707127277403
2200.3052191013153 0.9998270131049054
2200.307419407635 0.9997786135277257
2200.309619716154 0.9997456733397614
2200.3118200268736 0.9997310860727734
2200.314020339794 0.9997337993733624
2200.3162206549146 0.9997467620562331
2200.3184209722353 0.9997530717682382
2200.320621291756 0.9997465360378393
2200.3228216134776 0.9997435333333726
2200.3250219373995 0.9997555261858054
2200.3272222635214 0.9997851990503301
2200.3294225918435 0.9998313512698255
2200.3316229223665 0.9998876726375464
2200.3338232550896 0.9999303914176596
2200.3360235900127 0.9999328094306459
2200.3382239271364 0.9999178883650394
2200.34042426646 0.9999089969797382
2200.342624607985 0.9999111871690471
2200.3448249517096 0.9999231432518612
2200.3470252976344 0.9999407415488878
2200.34922564576 0.9999568531792776
2200.3514259960857 0.9999625447100625
2200.3536263486117 0.9999552982851845
2200.355826703338 0.9999416460967665
2200.3580270602647 0.9999244821382989
2200.3602274193922 0.9998922718584559
2200.36242778072 0.9998353865220729
2200.3646281442475 0.9997728566514358
2200.3668285099757 0.9997217056899979
2200.3690288779044 0.9996878489975856
2200.371229248033 0.999673202594513
2200.3734296203625 0.9996782251762896
2200.3756299948923 0.9997022891405399
2200.377830371622 0.9997419023619876
2200.3800307505526 0.999784858048944
2200.3822311316835 0.9998128622326197
2200.3844315150145 0.9998307121969386
2200.386631900546 0.9998524972494174
2200.388832288278 0.9998756688415738
2200.3910326782106 0.9998914269120414
2200.3932330703433 0.9999035893877767
2200.3954334646764 0.9999180431578366
2200.39763386121 0.9999229670115891
2200.399834259944 0.9999008639883764
2200.402034660878 0.9998674089148694
2200.404235064013 0.9998431173418381
2200.4064354693483 0.9998341929258469
2200.4086358768836 0.9998403609999089
2200.4108362866195 0.9998572287075946
2200.413036698556 0.9998772566832819
2200.415237112693 0.9998960622778807
2200.4174375290304 0.9999128583221938
2200.419637947568 0.9999094906372176
2200.421838368306 0.9998606273251582
2200.4240387912446 0.9997952057980065
2200.4262392163832 0.9997396389817645
2200.428439643723 0.9997008150809854
2200.430640073262 0.9996808439692739
2200.432840505003 0.9996803398902652
2200.435040938943 0.999698926479748
2200.4372413750843 0.9997336119992352
2200.4394418134257 0.9997664019583542
2200.4416422539675 0.9997542798067559
2200.4438426967104 0.9997167478408879
2200.4460431416533 0.9996898187293061
2200.4482435887962 0.9996813591189044
2200.45044403814 0.9996924586130815
2200.452644489684 0.9997228530211428
2200.4548449434287 0.9997711839866281
2200.457045399374 0.9998339648899476
2200.4592458575194 0.9999019575686419
2200.4614463178655 0.9999553977348596
2200.463646780412 0.9999834367153535
2200.465847245159 0.999995279181238
2200.468047712106 1.0
2200.470248181254 0.9999997914026744
2200.4724486526025 0.9999891046255666
2200.4746491261512 0.9999593149463275
2200.4768496019005 0.9999133529262746
2200.4790500798504 0.9998658350679889
2200.4812505600003 0.9998264500157208
2200.483451042351 0.9997983632307487
2200.4856515269025 0.9997823890846406
2200.487852013654 0.9997791411690234
2200.4900525026064 0.9997896335923566
2200.492252993759 0.9998146267339867
2200.494453487112 0.9998528700997932
2200.4966539826655 0.9998973123483539
2200.49885448042 0.9999336740746211
2200.5010549803746 0.9999570660372109
2200.5032554825298 0.9999732827718385
2200.5054559868854 0.9999799873577422
2200.5076564934416 0.9999724328708469
2200.5098570021983 0.9999547728484199
2200.5120575131555 0.9999325086877099
2200.514258026313 0.9999026091621228
2200.5164585416715 0.9998636340514576
2200.5186590592302 0.9998256354430289
2200.5208595789895 0.9997983816884692
2200.5230601009494 0.9997858840478798
2200.5252606251097 0.9997868080935064
2200.5274611514706 0.999788137719052
2200.529661680032 0.9997669293194563
2200.531862210794 0.9997326565795351
2200.5340627437563 0.9997074666942305
2200.5362632789193 0.9996969666657478
2200.5384638162827 0.9996946913179798
2200.5406643558467 0.9996853569808112
2200.5428648976113 0.9996656358453511
2200.5450654415763 0.9996491220017255
2200.547265987742 0.999644417063226
2200.549466536108 0.9996536795207809
2200.5516670866746 0.9996770324479877
2200.553867639442 0.9997119207909704
2200.55606819441 0.9997430853163468
2200.5582687515785 0.9997400210150664
2200.560469310947 0.9997164370480539
2200.562669872517 0.9997016797393284
2200.564870436287 0.9997044585810948
2200.5670710022578 0.9997262971317684
2200.5692715704286 0.9997666133584533
2200.571472140801 0.9998203036572256
2200.573672713373 0.9998572766336559
2200.575873288146 0.9998424335099542
2200.578073865119 0.9998185420338546
2200.5802744442935 0.9998094940871985
2200.5824750256684 0.9998182670986107
2200.5846756092433 0.9998438310473873
2200.586876195019 0.9998815280828413
2200.5890767829956 0.9999200598270431
2200.5912773731725 0.9999477718211421
2200.59347796555 0.9999649468791738
2200.5956785601284 0.9999726829729132
2200.597879156907 0.9999701369557512
2200.6000797558863 0.9999612327181392
2200.6022803570663 0.9999495630152819
2200.604480960447 0.9999329358331847
2200.6066815660283 0.9999056135871581
2200.60888217381 0.9998704636238209
2200.611082783792 0.9998395414458967
2200.613283395975 0.9998216574967096
2200.6154840103586 0.9998202762737745
2200.617684626943 0.9998360156108824
2200.619885245728 0.9998674997422439
2200.6220858667134 0.9999100729124534
2200.6242864898995 0.9999521702715645
2200.626487115286 0.9999761370218033
2200.6286877428734 0.999975182266517
2200.6308883726615 0.9999606207065289
2200.63308900465 0.9999445917164679
2200.6352896388394 0.9999332995105512
2200.637490275229 0.9999292387197215
2200.63969091382 0.9999329537636561
2200.641891554611 0.9999428452861789
2200.6440921976027 0.9999538433381222
2200.646292842795 0.9999596043087485
2200.6484934901882 0.9999576297376651
2200.650694139782 0.9999475360403866
2200.6528947915763 0.9999311396830729
2200.655095445571 0.9999154584741986
2200.657296101767 0.999906341025123
2200.659496760163 0.9999043932070731
2200.66169742076 0.9999079890964718
2200.663898083558 0.9999168120454355
2200.6660987485557 0.999930963901406
2200.668299415755 0.9999474197001752
2200.6705000851543 0.9999575877514881
2200.6727007567547 0.9999455360546029
2200.6749014305556 0.9999067950280248
2200.677102106557 0.9998643721231425
2200.67930278476 0.9998345078618948
2200.6815034651627 0.9998217278335353
2200.6837041477665 0.9998269733484442
2200.685904832571 0.999849723221837
2200.6881055195763 0.9998876103878053
2200.6903062087817 0.9999332818602673
2200.6925069001886 0.9999697922378129
2200.6947075937956 0.999983667247853
2200.6969082896035 0.9999790905159067
2200.699108987612 0.9999646120660263
2200.701309687821 0.9999473187416194
2200.7035103902313 0.9999333440107543
2200.7057110948417 0.9999249159626254
2200.707911801653 0.999916540436857
2200.710112510665 0.9998917849317707
2200.7123132218776 0.9998368395475618
2200.7145139352915 0.9997690530141763
2200.7167146509055 0.9997094254060168
2200.7189153687204 0.9996661956571958
2200.721116088736 0.999642064096235
2200.7233168109524 0.9996378026949264
2200.72551753537 0.9996535286564208
2200.7277182619873 0.9996889495404608
2200.729918990806 0.9997428270337185
2200.7321197218253 0.9998113591946823
2200.7343204550452 0.9998814726616011
2200.736521190466 0.9999235631089052
2200.7387219280877 0.9999345404330819
2200.7409226679097 0.9999371843640137
2200.7431234099327 0.999940624474888
2200.7453241541566 0.9999431626572303
2200.747524900581 0.9999411761487761
2200.749725649206 0.9999356261933886
2200.751926400032 0.999929710516186
2200.754127153059 0.9999233651996298
2200.7563279082865 0.9999134212051437
2200.7585286657145 0.999898764692046
2200.7607294253435 0.9998822584830608
2200.7629301871734 0.9998687417912703
2200.765130951204 0.9998630576218379
2200.767331717435 0.9998667665748521
2200.769532485867 0.9998744428644923
2200.7717332565 0.9998750435051627
2200.7739340293333 0.999866242796618
2200.7761348043678 0.9998556832490513
2200.7783355816027 0.9998472298506212
2200.7805363610387 0.999841672031475
2200.782737142675 0.9998413349510566
2200.7849379265126 0.9998496030158593
2200.787138712551 0.999868866186963
2200.78933950079 0.9998989454713367
2200.79154029123 0.9999336308122739
2200.7937410838704 0.9999578501179035
2200.795941878712 0.9999642653743974
2200.798142675754 0.9999633631549355
2200.800343474997 0.9999637986363278
2200.802544276441 0.9999661265085421
2200.804745080086 0.9999691548600785
2200.806945885931 0.999974126833046
2200.8091466939773 0.9999820660246057
2200.811347504224 0.9999898085723177
2200.813548316672 0.9999914014453102
2200.8157491313204 0.9999861804562888
2200.8179499481703 0.9999803668433668
2200.8201507672206 0.9999788913381268
2200.8223515884715 0.9999820509204752
2200.8245524119234 0.9999871829842503
2200.826753237576 0.9999900208462742
2200.8289540654296 0.999986565543061
2200.8311548954844 0.9999777364830031
2200.833355727739 0.999969220712708
2200.8355565621955 0.9999649605647459
2200.8377573988523 0.9999635750297583
2200.83995823771 0.9999594117080585
2200.842159078769 0.999948789905472
2200.844359922028 0.999935015372564
2200.8465607674884 0.9999236040150742
2200.8487616151497 0.999917863303094
2200.850962465012 0.9999192030704079
2200.853163317074 0.9999263810791438
2200.855364171338 0.9999323993019634
2200.8575650278026 0.9999292375302928
2200.8597658864683 0.9999214600586929
2200.8619667473345 0.9999194633359323
2200.864167610401 0.9999276541654873
2200.8663684756693 0.9999439869091653
2200.8685693431385 0.9999617589417501
2200.870770212808 0.999974364580997
2200.8729710846787 0.9999806506838106
2200.87517195875 0.9999818260698479
2200.8773728350225 0.9999768129415101
2200.8795737134956 0.9999640487849437
2200.8817745941697 0.999944700383473
2200.8839754770443 0.999921940855389
2200.8861763621203 0.9998992564588932
2200.888377249397 0.9998803898742475
2200.890578138875 0.9998693820353818
2200.8927790305534 0.9998696421952941
2200.8949799244324 0.9998829577168328
2200.897180820513 0.9999088213632622
2200.899381718794 0.9999429859784165
2200.901582619276 0.9999737920137245
2200.903783521959 0.9999845146930392
2200.905984426843 0.9999756617886154
2200.908185333928 0.9999639305773496
2200.9103862432135 0.9999588104241679
2200.9125871547003 0.9999607872620682
2200.9147880683877 0.9999665051699889
2200.916988984276 0.999973311176629
2200.9191899023654 0.9999805532203255
2200.921390822655 0.9999858948092422
2200.9235917451465 0.9999850314459972
2200.9257926698388 0.999977408718841
2200.9279935967315 0.9999662046674986
2200.9301945258253 0.9999536866693632
2200.9323954571205 0.9999396945951428
2200.934596390616 0.9999189063369622
2200.936797326313 0.9998840733036941
2200.9389982642106 0.9998433465180891
2200.941199204309 0.9998114691106809
2200.9434001466084 0.9997954337716666
2200.945601091109 0.9997972322143714
2200.9478020378106 0.9998165879544488
2200.9500029867127 0.9998509280330741
2200.952203937816 0.9998929558632997
2200.9544048911207 0.9999278659406556
2200.9566058466257 0.9999422468759097
2200.958806804332 0.9999371565252984
2200.9610077642396 0.9999239163348242
2200.9632087263476 0.9999136113676876
2200.9654096906565 0.9999119446599064
2200.967610657167 0.9999190989541519
2200.969811625878 0.9999281693734721
2200.9720125967897 0.9999284924355564
2200.974213569903 0.9999212820415759
2200.976414545217 0.9999163378652416
2200.9786155227316 0.9999173020455199
2200.980816502448 0.9999219089619373
2200.9830174843646 0.9999240951926647
2200.9852184684823 0.9999169993442408
2200.9874194548015 0.9999041021193268
2200.989620443321 0.9998969154641106
2200.991821434042 0.9999023655831251
2200.994022426964 0.9999209601987114
2200.9962234220866 0.9999464758710557
2200.9984244194106 0.9999637767987319
2201.000625418935 0.999961610640064
2201.002826420661 0.9999481587117309
2201.0050274245878 0.9999354031045077
2201.0072284307157 0.9999278138019013
2201.0094294390447 0.9999221908531002
2201.0116304495746 0.9999084484912739
2201.0138314623055 0.9998812414360646
2201.0160324772373 0.9998502983789729
2201.01823349437 0.9998269310697985
2201.020434513704 0.9998167640746023
2201.022635535239 0.9998217213587374
2201.0248365589746 0.9998402068422252
2201.027037584912 0.9998618462231215
2201.0292386130495 0.999863075862354
2201.0314396433887 0.9998403924200829
2201.033640675929 0.9998159927019923
2201.03584171067 0.9998027990194481
2201.038042747612 0.9998051881145312
2201.0402437867556 0.9998243349135127
2201.0424448280996 0.9998593146997677
2201.044645871645 0.999904390780125
2201.046846917391 0.9999357709861569
2201.0490479653386 0.9999238189886758
2201.051249015487 0.9998900889226787
2201.0534500678364 0.999860429985192
2201.055651122387 0.9998433811579018
2201.0578521791385 0.9998412459632989
2201.0600532380913 0.9998526248902087
2201.062254299245 0.9998696625488392
2201.0644553626 0.9998750736068366
2201.066656428156 0.9998560819517616
2201.0688574959127 0.9998222994435632
2201.0710585658708 0.9997903370958154
2201.07325963803 0.9997697664916243
2201.07546071239 0.9997644116799438
2201.077661788951 0.9997753556439366
2201.0798628677135 0.9998014654311121
2201.082063948677 0.9998361638682525
2201.0842650318414 0.9998609827860486
2201.086466117207 0.999861775120662
2201.088667204773 0.9998469311434475
2201.090868294541 0.9998227163005147
2201.0930693865093 0.9997965358592624
2201.0952704806796 0.9997784437607206
2201.0974715770503 0.9997742235384353
2201.0996726756225 0.9997849838094569
2201.1018737763957 0.9998073445748199
2201.10407487937 0.999832163027901
2201.1062759845454 0.9998494942790773
2201.1084770919215 0.9998605909359525
2201.110678201499 0.9998735598531906
2201.112879313278 0.9998931902998311
2201.1150804272575 0.9999176091742245
2201.1172815434384 0.999932430881933
2201.1194826618207 0.9999195448472481
2201.1216837824036 0.9998911225027048
2201.123884905188 0.9998670922530535
2201.1260860301736 0.9998543308703205
2201.12828715736 0.9998523587144836
2201.1304882867475 0.9998571222995213
2201.132689418336 0.9998635311153494
2201.1348905521263 0.9998651591597081
2201.1370916881174 0.999850766485133
2201.1392928263094 0.9998185926567177
2201.141493966703 0.9997843159381581
2201.1436951092974 0.9997598851718154
2201.145896254093 0.9997490302484819
2201.1480974010897 0.99975124538136
2201.1502985502875 0.9997630379023047
2201.1524997016863 0.9997751776021957
2201.1547008552866 0.9997713490751616
2201.1569020110883 0.9997518585864839
2201.159103169091 0.9997356649181679
2201.161304329294 0.9997326416026029
2201.163505491699 0.9997419447201811
2201.165706656305 0.9997549135201845
2201.1679078231123 0.9997628501063065
2201.1701089921207 0.9997699087565798
