Atmospheric Species: CH4_CO_CO2_H2O_NH3
Metallicity: 1
C/O_Ratio: 1.0
Wavelength[nm] Flux_variation
2199.999397930935 0.9997337341450214
2200.001597931433 0.9997605868229595
2200.003797934131 0.9997848966693135
2200.0059979390285 0.9998115939570157
2200.0081979461265 0.9998473031529698
2200.010397955424 0.9998930812483219
2200.0125979669224 0.9999384773321173
2200.01479798062 0.9999626705444431
2200.016997996518 0.9999597135401517
2200.019198014616 0.9999399224609871
2200.021398034914 0.9999114472556283
2200.023598057412 0.9998756396860925
2200.0257980821098 0.9998378063077139
2200.027998109008 0.9998080658387971
2200.030198138106 0.9997930517857342
2200.032398169404 0.9997951857779185
2200.034598202902 0.999814354199471
2200.0367982386 0.9998480099552747
2200.0389982764987 0.9998884696232547
2200.041198316597 0.9999196647934102
2200.043398358895 0.9999335284331835
2200.0455984033933 0.9999417029189133
2200.0477984500917 0.9999528219462818
2200.04999849899 0.9999659092692483
2200.052198550088 0.9999735164314518
2200.0543986033867 0.9999676337066847
2200.0565986588854 0.9999502305465455
2200.058798716584 0.9999301611715807
2200.0609987764824 0.9999137532565849
2200.0631988385812 0.9999044229188044
2200.06539890288 0.9999038394832548
2200.0675989693787 0.9999114629023075
2200.0697990380777 0.9999233542141834
2200.071999108977 0.9999288017050844
2200.074199182076 0.9999033830576587
2200.076399257375 0.9998398888828178
2200.078599334874 0.9997718465018014
2200.0807994145734 0.9997171561453241
2200.082999496473 0.9996803866261235
2200.0851995805724 0.9996630081601633
2200.087399666872 0.99966542909761
2200.0895997553716 0.9996874994615618
2200.0917998460714 0.9997283243186516
2200.093999938971 0.9997853228686385
2200.096200034071 0.999852078436356
2200.098400131371 0.9999127707746747
2200.100600230871 0.9999463015648973
2200.1028003325714 0.9999565224373039
2200.1050004364715 0.999957473621695
2200.107200542572 0.9999540088287633
2200.1094006508724 0.9999483878904485
2200.111600761373 0.999944480001027
2200.113800874074 0.9999442295092401
2200.116000988975 0.9999443803877833
2200.118201106076 0.9999389441023646
2200.120401225377 0.9999280865612886
2200.1226013468786 0.9999192993083422
2200.1248014705798 0.9999188506061751
2200.1270015964815 0.9999275518315586
2200.129201724583 0.9999401568377422
2200.1314018548846 0.9999485910661912
2200.1336019873866 0.9999494466490503
2200.1358021220885 0.9999426227765379
2200.1380022589906 0.9999287204542125
2200.1402023980927 0.9999137789122116
2200.1424025393953 0.9999055757012271
2200.1446026828976 0.9999064173670617
2200.1468028286004 0.9999046586286287
2200.149002976503 0.9998730103849955
2200.151203126606 0.9998209531409108
2200.1534032789095 0.9997759439326337
2200.1556034334126 0.9997468883219137
2200.157803590116 0.9997359462347847
2200.16000374902 0.9997436833058606
2200.162203910123 0.9997697527275916
2200.1644040734272 0.9998123020262651
2200.1666042389315 0.9998649187332229
2200.168804406636 0.9999090796347399
2200.17100457654 0.9999265648788568
2200.173204748645 0.9999285259994259
2200.1754049229494 0.9999265611182897
2200.1776050994545 0.9999124685916411
2200.179805278159 0.9998764012936
2200.182005459065 0.9998340259203182
2200.18420564217 0.9997995113792686
2200.186405827476 0.9997695435355276
2200.188606014982 0.9997306857650579
2200.1908062046878 0.9996841774196455
2200.193006396594 0.9996455086607937
2200.1952065907003 0.9996236070239852
2200.197406787007 0.999621045758185
2200.1996069855136 0.9996383634141724
2200.201807186221 0.9996754536215084
2200.204007389128 0.9997312827826065
2200.2062075942354 0.9998020404720979
2200.208407801543 0.9998702318630999
2200.2106080110507 0.999897488959934
2200.2128082227587 0.9998953305259716
2200.215008436667 0.9998843149666787
2200.2172086527758 0.9998628390095747
2200.2194088710844 0.9998405687663374
2200.221609091593 0.9998298805639713
2200.2238093143023 0.9998356073986183
2200.2260095392116 0.999857513852804
2200.228209766321 0.9998891333596386
2200.230409995631 0.9999119622229068
2200.232610227141 0.9999146002851667
2200.2348104608513 0.9999133660179836
2200.237010696762 0.99992117627568
2200.2392109348725 0.9999391204195478
2200.2414111751837 0.9999608290661836
2200.243611417695 0.9999769116638174
2200.245811662406 0.999983530131342
2200.248011909318 0.9999809880625155
2200.25021215843 0.9999666948392222
2200.2524124097417 0.9999400860993534
2200.254612663254 0.9999109480925457
2200.256812918967 0.9998904716534845
2200.2590131768798 0.999883616834553
2200.2612134369933 0.9998910402494967
2200.2634136993065 0.9999105126777708
2200.26561396382 0.999935943887323
2200.2678142305344 0.999957035893642
2200.2700144994487 0.9999638477517511
2200.272214770563 0.9999408341280887
2200.274415043878 0.9998764135806241
2200.2766153193934 0.9998021548207008
2200.2788155971084 0.9997401721242407
2200.281015877024 0.999695640492955
2200.28321615914 0.999670248137185
2200.2854164434566 0.999664541374969
2200.287616729973 0.9996783102810268
2200.2898170186895 0.9997098588062523
2200.2920173096068 0.9997524985640092
2200.294217602724 0.9997899096885412
2200.296417898042 0.9998130872196613
2200.29861819556 0.9998361401522669
2200.3008184952782 0.9998654942776837
2200.3030187971967 0.9998710952742577
2200.3052191013153 0.9998275292539167
2200.307419407635 0.9997791646016744
2200.309619716154 0.999746228984333
2200.3118200268736 0.9997316424317897
2200.314020339794 0.9997343558694808
2200.3162206549146 0.9997473185389069
2200.3184209722353 0.9997536281809191
2200.320621291756 0.9997470924619207
2200.3228216134776 0.9997440897877731
2200.3250219373995 0.9997560826315933
2200.3272222635214 0.9997857554049688
2200.3294225918435 0.9998319072391345
2200.3316229223665 0.9998882268487068
2200.3338232550896 0.9999309404802137
2200.3360235900127 0.9999333560877512
2200.3382239271364 0.9999184365871254
2200.34042426646 0.9999095458226118
2200.342624607985 0.9999117345507765
2200.3448249517096 0.9999236863458446
2200.3470252976344 0.9999412772960069
2200.34922564576 0.9999573828149629
2200.3514259960857 0.9999630772924639
2200.3536263486117 0.9999558396990211
2200.355826703338 0.9999421940848463
2200.3580270602647 0.9999250342946019
2200.3602274193922 0.9998928272078601
2200.36242778072 0.9998359430423477
2200.3646281442475 0.999773413271903
2200.3668285099757 0.9997222622940354
2200.3690288779044 0.9996884055845717
2200.371229248033 0.999673759173714
2200.3734296203625 0.999678781758172
2200.3756299948923 0.9997028457347941
2200.377830371622 0.9997424589701185
2200.3800307505526 0.9997854145757226
2200.3822311316835 0.9998134179226582
2200.3844315150145 0.9998312640348636
2200.386631900546 0.9998530330505992
2200.388832288278 0.9998761577380317
2200.3910326782106 0.9998918620145609
2200.3932330703433 0.9999040034006779
2200.3954334646764 0.9999184488946512
2200.39763386121 0.9999233824745175
2200.399834259944 0.9999013361236674
2200.402034660878 0.9998679291872956
2200.404235064013 0.9998436564855055
2200.4064354693483 0.9998347382597025
2200.4086358768836 0.9998409075766655
2200.4108362866195 0.9998577729054844
2200.413036698556 0.9998777933915495
2200.415237112693 0.9998965870480679
2200.4174375290304 0.999913375924515
2200.419637947568 0.9999100279281058
2200.421838368306 0.999861182302439
2200.4240387912446 0.9997957623820241
2200.4262392163832 0.9997401955934305
2200.428439643723 0.9997013716734161
2200.430640073262 0.9996814005487882
2200.432840505003 0.9996808964598495
2200.435040938943 0.9996994829942368
2200.4372413750843 0.9997341679071217
2200.4394418134257 0.9997669536817538
2200.4416422539675 0.9997548310425194
2200.4438426967104 0.9997173026418396
2200.4460431416533 0.9996903746338944
2200.4482435887962 0.9996819152437608
2200.45044403814 0.9996930146050236
2200.452644489684 0.9997234084777968
2200.4548449434287 0.9997717377680291
2200.457045399374 0.9998345096782394
2200.4592458575194 0.9999024265821728
2200.4614463178655 0.999955543738877
2200.463646780412 0.99998322121607
2200.465847245159 0.9999950584234139
2200.468047712106 1.0
2200.470248181254 0.9999999573175702
2200.4724486526025 0.999989308828473
2200.4746491261512 0.9999596101579018
2200.4768496019005 0.9999138142095954
2200.4790500798504 0.9998663715514562
2200.4812505600003 0.9998270024121639
2200.483451042351 0.9997989182513417
2200.4856515269025 0.9997829441784347
2200.487852013654 0.9997796952321423
2200.4900525026064 0.999790185051676
2200.492252993759 0.9998151724150025
2200.494453487112 0.999853403297317
2200.4966539826655 0.9998978218224822
2200.49885448042 0.9999341571027859
2200.5010549803746 0.9999575324855642
2200.5032554825298 0.9999737390183908
2200.5054559868854 0.9999804569468475
2200.5076564934416 0.9999729401087845
2200.5098570021983 0.9999553093009725
2200.5120575131555 0.9999330580431709
2200.514258026313 0.9999031634068809
2200.5164585416715 0.9998641898268661
2200.5186590592302 0.9998261916091531
2200.5208595789895 0.9997989379754694
2200.5230601009494 0.9997864403680353
2200.5252606251097 0.9997873644062062
2200.5274611514706 0.9997886940839995
2200.529661680032 0.9997674857897555
2200.531862210794 0.9997332130230757
2200.5340627437563 0.9997080230164063
2200.5362632789193 0.9996975227101205
2200.5384638162827 0.9996952468949674
2200.5406643558467 0.999685912498686
2200.5428648976113 0.9996661918437779
2200.5450654415763 0.9996496783224217
2200.547265987742 0.9996449735203644
2200.549466536108 0.9996542360390013
2200.5516670866746 0.9996775890021213
2200.553867639442 0.9997124773731055
2200.55606819441 0.9997436419167729
2200.5582687515785 0.9997405776134033
2200.560469310947 0.9997169936297304
2200.562669872517 0.9997022363033358
2200.564870436287 0.9997050151283191
2200.5670710022578 0.9997268536503678
2200.5692715704286 0.9997671697231081
2200.571472140801 0.9998208575484949
2200.573672713373 0.9998578007808183
2200.575873288146 0.9998429272118057
2200.578073865119 0.9998190290725946
2200.5802744442935 0.9998099553731797
2200.5824750256684 0.9998186486739372
2200.5846756092433 0.9998439761253729
2200.586876195019 0.9998810393006399
2200.5890767829956 0.9999185733228332
2200.5912773731725 0.9999456739256524
2200.59347796555 0.9999627634626171
2200.5956785601284 0.9999711031938
2200.597879156907 0.9999695657064331
2200.6000797558863 0.9999613061544137
2200.6022803570663 0.9999498207169641
2200.604480960447 0.9999330346852929
2200.6066815660283 0.999905313011279
2200.60888217381 0.9998699141804269
2200.611082783792 0.9998389246577895
2200.613283395975 0.9998208702971147
2200.6154840103586 0.9998189640740887
2200.617684626943 0.9998334018994226
2200.619885245728 0.9998620257320862
2200.6220858667134 0.9998999575652422
2200.6242864898995 0.999939508429197
2200.626487115286 0.9999682750115659
2200.6286877428734 0.9999729399079994
2200.6308883726615 0.9999600004250898
2200.63308900465 0.9999435219186236
2200.6352896388394 0.9999294834834814
2200.637490275229 0.9999180487547628
2200.63969091382 0.999908144349284
2200.641891554611 0.9999003913151162
2200.6440921976027 0.9998962825740925
2200.646292842795 0.9998967150272678
2200.6484934901882 0.9999005747716443
2200.650694139782 0.999903771595491
2200.6528947915763 0.9999028614179999
2200.655095445571 0.9998999838856886
2200.657296101767 0.9998992155785306
2200.659496760163 0.9999018725828751
2200.66169742076 0.9999075285935373
2200.663898083558 0.9999170424007128
2200.6660987485557 0.9999313564557896
2200.668299415755 0.9999478126634345
2200.6705000851543 0.9999579739736556
2200.6727007567547 0.9999460038918299
2200.6749014305556 0.9999073361356342
2200.677102106557 0.9998649270348217
2200.67930278476 0.9998350641916213
2200.6815034651627 0.9998222843249315
2200.6837041477665 0.9998275297011223
2200.685904832571 0.9998502777333649
2200.6881055195763 0.9998881360217932
2200.6903062087817 0.9999334215711352
2200.6925069001886 0.9999678287215742
2200.6947075937956 0.9999784235646034
2200.6969082896035 0.9999731562782033
2200.699108987612 0.9999608898075544
2200.701309687821 0.9999460204186006
2200.7035103902313 0.9999332985888912
2200.7057110948417 0.9999253081254531
2200.707911801653 0.9999170575408544
2200.710112510665 0.9998923338572995
2200.7123132218776 0.9998373954532653
2200.7145139352915 0.9997696095997217
2200.7167146509055 0.9997099820021458
2200.7189153687204 0.9996667522325673
2200.721116088736 0.9996426206585685
2200.7233168109524 0.9996383592549075
2200.72551753537 0.9996540852248335
2200.7277182619873 0.9996895061246128
2200.729918990806 0.9997433835449346
2200.7321197218253 0.9998119115843972
2200.7343204550452 0.9998819020704913
2200.736521190466 0.9999232267751073
2200.7387219280877 0.999933346452947
2200.7409226679097 0.9999357339307753
2200.7431234099327 0.9999394095512483
2200.7453241541566 0.9999425384904134
2200.747524900581 0.9999411804262068
2200.749725649206 0.9999359867902518
2200.751926400032 0.9999301958508702
2200.754127153059 0.9999238826433148
2200.7563279082865 0.9999139511778726
2200.7585286657145 0.9998993071286005
2200.7607294253435 0.9998828094093258
2200.7629301871734 0.9998692959106447
2200.765130951204 0.9998636118309437
2200.767331717435 0.9998673183933072
2200.769532485867 0.9998749893453995
2200.7717332565 0.999875585429432
2200.7739340293333 0.9998667859546717
2200.7761348043678 0.9998562304897707
2200.7783355816027 0.9998477805090437
2200.7805363610387 0.9998422244767087
2200.782737142675 0.9998418878875936
2200.7849379265126 0.9998501552948869
2200.787138712551 0.9998694148665963
2200.78933950079 0.9998994776751163
2200.79154029123 0.9999341062659708
2200.7937410838704 0.9999582536334559
2200.795941878712 0.9999646709447749
2200.798142675754 0.9999638012932378
2200.800343474997 0.9999642516899538
2200.802544276441 0.9999665795996958
2200.804745080086 0.9999695940101989
2200.806945885931 0.9999745188161469
2200.8091466939773 0.999982335514629
2200.811347504224 0.9999897901256681
2200.813548316672 0.9999908819013973
2200.8157491313204 0.9999851616311256
2200.8179499481703 0.9999790763672177
2200.8201507672206 0.9999775823638107
2200.8223515884715 0.9999809650795088
2200.8245524119234 0.9999864669409904
2200.826753237576 0.9999895303696195
2200.8289540654296 0.9999859280000016
2200.8311548954844 0.9999768171169234
2200.833355727739 0.9999681875185475
2200.8355565621955 0.9999639372659086
2200.8377573988523 0.9999624253211934
2200.83995823771 0.9999578249469806
2200.842159078769 0.9999469405053675
2200.844359922028 0.999933532698428
2200.8465607674884 0.9999227968604619
2200.8487616151497 0.9999176459241258
2200.850962465012 0.9999193673677315
2200.853163317074 0.9999267624396907
2200.855364171338 0.9999328965321073
2200.8575650278026 0.9999297791690454
2200.8597658864683 0.9999220110792575
2200.8619667473345 0.9999200149097428
2200.864167610401 0.9999282033599681
2200.8663684756693 0.999944530976636
2200.8685693431385 0.9999622962081391
2200.870770212808 0.9999748949225501
2200.8729710846787 0.9999811689565352
2200.87517195875 0.9999823213781256
2200.8773728350225 0.9999772885754029
2200.8795737134956 0.9999645343666501
2200.8817745941697 0.9999452172871632
2200.8839754770443 0.9999224823468845
2200.8861763621203 0.9998998084907135
2200.888377249397 0.9998809448265643
2200.890578138875 0.9998699373372003
2200.8927790305534 0.9998701966675131
2200.8949799244324 0.9998835087301295
2200.897180820513 0.9999093559222674
2200.899381718794 0.9999434305419731
2200.901582619276 0.9999738914617682
2200.903783521959 0.9999841691955059
2200.905984426843 0.9999753498648225
2200.908185333928 0.9999638883046373
2200.9103862432135 0.9999589678882221
2200.9125871547003 0.9999610389067041
2200.9147880683877 0.9999667460206497
2200.916988984276 0.9999734206387056
2200.9191899023654 0.9999804597238634
2200.921390822655 0.9999857191740339
2200.9235917451465 0.9999850484732963
2200.9257926698388 0.9999777078842048
2200.9279935967315 0.9999666675359116
2200.9301945258253 0.9999542084514886
2200.9323954571205 0.9999402351948208
2200.934596390616 0.9999194555457616
2200.936797326313 0.9998846275406449
2200.9389982642106 0.999843902465411
2200.941199204309 0.9998120254598415
2200.9434001466084 0.9997959902418077
2200.945601091109 0.9997977887101099
2200.9478020378106 0.9998171442461166
2200.9500029867127 0.9998514822074316
2200.952203937816 0.9998934919030672
2200.9544048911207 0.9999283285326486
2200.9566058466257 0.9999426390413081
2200.958806804332 0.9999375876105628
2200.9610077642396 0.9999244118647255
2200.9632087263476 0.9999141322902397
2200.9654096906565 0.9999124533628873
2200.967610657167 0.9999195331175922
2200.969811625878 0.9999284233147699
2200.9720125967897 0.9999286082930937
2200.974213569903 0.999921469684307
2200.976414545217 0.9999166585163695
2200.9786155227316 0.9999177236751784
2200.980816502448 0.9999223954182732
2200.9830174843646 0.9999246197104675
2200.9852184684823 0.9999175434122372
2200.9874194548015 0.9999046530268983
2200.989620443321 0.9998974650788865
2200.991821434042 0.9999028954133781
2200.994022426964 0.9999213464166903
2200.9962234220866 0.9999460337526892
2200.9984244194106 0.999961191376293
2201.000625418935 0.9999577897835363
2201.002826420661 0.9999453264354801
2201.0050274245878 0.9999340719891935
2201.0072284307157 0.999927529162582
2201.0094294390447 0.9999224702178392
2201.0116304495746 0.9999089520128214
2201.0138314623055 0.9998817914556696
2201.0160324772373 0.9998508534968639
2201.01823349437 0.9998274868775371
2201.020434513704 0.9998173199380189
2201.022635535239 0.9998222769049555
2201.0248365589746 0.9998407614994965
2201.027037584912 0.9998623997490208
2201.0292386130495 0.9998636299513385
2201.0314396433887 0.9998409468665473
2201.033640675929 0.9998165464789804
2201.03584171067 0.9998033510217544
2201.038042747612 0.9998057352462152
2201.0402437867556 0.9998248664059403
2201.0424448280996 0.9998597893113873
2201.044645871645 0.9999046936330971
2201.046846917391 0.9999360017031862
2201.0490479653386 0.9999242883021047
2201.051249015487 0.9998906357965015
2201.0534500678364 0.9998609850910612
2201.055651122387 0.9998439371338388
2201.0578521791385 0.9998418020034039
2201.0600532380913 0.9998531806156359
2201.062254299245 0.9998702166652643
2201.0644553626 0.9998756226684273
2201.066656428156 0.9998566287937417
2201.0688574959127 0.999822850409516
2201.0710585658708 0.9997908912794268
2201.07325963803 0.9997703220123174
2201.07546071239 0.9997649677030038
2201.077661788951 0.9997759118253285
2201.0798628677135 0.9998020212072475
2201.082063948677 0.999836713867733
2201.0842650318414 0.9998614998627277
2201.086466117207 0.9998622538194967
2201.088667204773 0.9998474210810462
2201.090868294541 0.9998232421474834
2201.0930693865093 0.9997970823721848
2201.0952704806796 0.9997789968934666
2201.0974715770503 0.999774778521293
2201.0996726756225 0.9997855390308087
2201.1018737763957 0.9998078977656302
2201.10407487937 0.9998327064353371
2201.1062759845454 0.9998500187166096
2201.1084770919215 0.9998611017248472
2201.110678201499 0.9998740664268561
2201.112879313278 0.9998936968562546
2201.1150804272575 0.9999181204120733
2201.1172815434384 0.9999329601905181
2201.1194826618207 0.9999200932732635
2201.1216837824036 0.999891676995838
2201.123884905188 0.9998676480599046
2201.1260860301736 0.9998548870202318
2201.12828715736 0.9998529149715337
2201.1304882867475 0.9998576785928752
2201.132689418336 0.9998640874100879
2201.1348905521263 0.999865715452259
2201.1370916881174 0.9998513228946289
2201.1392928263094 0.9998191492051722
2201.141493966703 0.9997848725326601
2201.1436951092974 0.9997604417726504
2201.145896254093 0.9997495868475319
2201.1480974010897 0.999751801975002
2201.1502985502875 0.999763594471987
2201.1524997016863 0.9997757341032749
2201.1547008552866 0.9997719055528057
2201.1569020110883 0.999752415124319
2201.159103169091 0.9997362214869382
2201.161304329294 0.9997331981719243
2201.163505491699 0.9997425012428284
2201.165706656305 0.9997554697707147
2201.1679078231123 0.9997634046414794
2201.1701089921207 0.9997704530174032
