Atmospheric Species: CO
Metallicity: 10000
C/O_Ratio: 0.5
Wavelength[nm] Flux_variation
1199.9994359108223 0.9999999791548532
1200.0006359108581 0.9999999812522165
1200.001835912094 0.9999999832388459
1200.0030359145298 0.9999999851133455
1200.0042359181657 0.9999999868767541
1200.0054359230016 0.9999999885290007
1200.0066359290374 0.9999999900704367
1200.0078359362733 0.9999999915004152
1200.0090359447092 0.9999999928194823
1200.010235954345 0.9999999940271936
1200.011435965181 0.9999999951236785
1200.0126359772169 0.9999999961098762
1200.013835990453 0.9999999969845801
1200.015036004889 0.9999999977487763
1200.0162360205247 0.9999999984003353
1200.0174360373605 0.9999999989430981
1200.0186360553967 0.9999999993732716
1200.0198360746326 0.9999999996933414
1200.021036095069 0.9999999999021124
1200.0222361167048 1.0
1200.023436139541 0.9999999999857139
1200.024636163577 0.9999999998610761
1200.0258361888132 0.9999999996251401
1200.0270362152494 0.9999999992778549
1200.0282362428854 0.9999999988196915
1200.0294362717216 0.9999999982749356
1200.030636301758 0.9999999976087397
1200.031836332994 0.9999999968310384
1200.0330363654305 0.9999999959417081
1200.034236399067 0.9999999949405862
1200.0354364339032 0.9999999938273192
1200.0366364699396 0.9999999926018515
1200.037836507176 0.9999999912643314
1200.0390365456126 0.9999999898148642
1200.040236585249 0.9999999882535143
1200.0414366260857 0.9999999865793832
1200.0426366681224 0.9999999847926403
1200.043836711359 0.9999999828936921
1200.0450367557955 0.9999999808813438
1200.0462368014323 0.9999999787559617
1200.0474368482692 0.9999999765179753
1200.048636896306 0.9999999741664627
1200.049836945543 0.9999999717016218
1200.0510369959798 0.9999999691227617
1200.0522370476167 0.9999999664304744
1200.0534371004537 0.9999999636238133
1200.0546371544908 0.9999999607033032
1200.055837209728 0.9999999576679944
1200.0570372661653 0.9999999545175539
1200.0582373238024 0.9999999512537948
1200.0594373826398 0.9999999478743393
1200.060637442677 0.9999999443792751
1200.0618375039146 0.9999999407687822
1200.063037566352 0.9999999370425358
1200.0642376299897 0.9999999332005178
1200.0654376948273 0.9999999292418246
1200.066637760865 0.9999999251666202
1200.0678378281027 0.9999999209745016
1200.0690378965403 0.9999999166658816
1200.0702379661784 0.9999999122393592
1200.0714380370162 0.999999907695553
1200.0726381090542 0.9999999030339389
1200.0738381822923 0.9999998982541621
1200.0750382567305 0.9999998933553063
1200.0762383323686 0.9999998883382891
1200.077438409207 0.9999998832015039
1200.0786384872454 0.9999998779454354
1200.0798385664839 0.9999998725697606
1200.0810386469223 0.9999998670735915
1200.082238728561 0.9999998614575011
1200.0834388113997 0.9999998557196569
1200.0846388954385 0.9999998498611935
1200.0858389806772 0.9999998438803864
1200.0870390671162 0.9999998377784906
1200.0882391547552 0.9999998315540364
1200.0894392435946 0.999999825206652
1200.0906393336338 0.9999998187358369
1200.0918394248731 0.9999998121419944
1200.0930395173125 0.9999998054241102
1200.0942396109522 0.99999979858138
1200.0954397057917 0.9999997916141894
1200.0966398018313 0.9999997845209132
1200.097839899071 0.9999997773027279
1200.099039997511 0.9999997699582327
1200.100240097151 0.9999997624866706
1200.1014401979912 0.9999997548889996
1200.1026403000312 0.9999997471628915
1200.1038404032715 0.999999739308986
1200.1050405077121 0.9999997313266618
1200.1062406133526 0.9999997232147879
1200.1074407201932 0.9999997149734968
1200.108640828234 0.9999997066021958
1200.1098409374747 0.9999996981002625
1200.1110410479157 0.9999996894671711
1200.1122411595568 0.9999996807022518
1200.113441272398 0.9999996718052364
1200.1146413864392 0.9999996627753086
1200.1158415016805 0.9999996536118806
1200.1170416181221 0.9999996443145399
1200.1182417357636 0.9999996348828968
1200.1194418546054 0.9999996253163732
1200.1206419746472 0.9999996156134922
1200.1218420958892 0.9999996057739312
1200.1230422183314 0.9999995957980125
1200.1242423419737 0.9999995856837292
1200.125442466816 0.9999995754317657
1200.1266425928584 0.9999995650413828
1200.1278427201012 0.9999995545108644
1200.1290428485438 0.9999995438396834
1200.1302429781867 0.9999995330280953
1200.1314431090298 0.9999995220748524
1200.1326432410729 0.9999995109786012
1200.133843374316 0.9999994997406475
1200.1350435087595 0.9999994883574754
1200.136243644403 0.9999994768307549
1200.1374437812467 0.9999994651589571
1200.1386439192906 0.99999945334036
1200.1398440585344 0.9999994413757176
1200.1410441989785 0.9999994292629414
1200.1422443406227 0.999999417002284
1200.1434444834672 0.999999404593006
1200.1446446275115 0.9999993920333118
1200.1458447727564 0.9999993793228459
1200.147044919201 0.9999993664611804
1200.1482450668461 0.9999993534470917
1200.149445215691 0.9999993402801809
1200.1506453657364 0.9999993269589261
1200.1518455169817 0.9999993134824747
1200.1530456694272 0.999999299850225
1200.154245823073 0.9999992860618918
1200.1554459779188 0.9999992721155724
1200.1566461339648 0.9999992580109582
1200.157846291211 0.9999992437469463
1200.1590464496574 0.9999992293224867
1200.1602466093038 0.9999992147369794
1200.1614467701506 0.9999991999886997
1200.1626469321973 0.999999185077512
1200.1638470954442 0.999999170002468
1200.1650472598915 0.9999991547626257
1200.1662474255388 0.9999991393550699
1200.1674475923862 0.9999991237818929
1200.1686477604337 0.999999108039205
1200.1698479296817 0.9999990921276354
1200.1710481001296 0.9999990760464601
1200.1722482717778 0.999999059793218
1200.173448444626 0.9999990433681165
1200.1746486186746 0.9999990267685998
1200.1758487939233 0.999999009994794
1200.177048970372 0.9999989930457088
1200.178249148021 0.9999989759192781
1200.17944932687 0.9999989586143985
1200.1806495069195 0.9999989411306611
1200.181849688169 0.999998923466758
1200.1830498706188 0.9999989056203085
1200.184250054269 0.999998887591951
1200.1854502391188 0.9999988693797629
1200.186650425169 0.9999988509818721
1200.1878506124197 0.999998832398033
1200.1890508008703 0.9999988136261299
1200.1902509905212 0.9999987946653347
1200.1914511813723 0.9999987755141765
1200.1926513734234 0.9999987561715724
1200.1938515666748 0.9999987366357175
1200.1950517611263 0.9999987169060893
1200.1962519567783 0.9999986969809695
1200.1974521536301 0.9999986768588518
1200.1986523516825 0.9999986565378258
1200.1998525509348 0.9999986360179682
1200.2010527513876 0.9999986152967301
1200.2022529530402 0.9999985943734631
1200.2034531558932 0.9999985732462969
1200.2046533599464 0.9999985519130977
1200.2058535651997 0.9999985303734688
1200.2070537716534 0.9999985086262432
1200.2082539793073 0.9999984866686411
1200.2094541881613 0.9999984644994667
1200.2106543982154 0.9999984421181886
1200.2118546094698 0.9999984195218422
1200.2130548219245 0.999998396710562
1200.2142550355793 0.999998372972299
1200.2154552504344 0.9999983412353332
1200.2166554664896 0.9999983093966233
1200.2178556837453 0.999998277454183
1200.219055902201 0.9999982454044499
1200.220256121857 0.999998213247281
1200.221456342713 0.9999981809787449
1200.2226565647693 0.9999981485987695
1200.223856788026 0.9999981161042544
1200.225057012483 0.9999980834642952
1200.22625723814 0.9999980507194443
1200.2274574649973 0.9999980178522725
1200.2286576930549 0.9999979848636467
1200.2298579223127 0.9999979517485219
1200.2310581527706 0.9999979185069964
1200.2322583844289 0.999997885134543
1200.2334586172874 0.9999978516305026
1200.234658851346 0.9999978179926697
1200.235859086605 0.9999977842208831
1200.2370593230642 0.9999977503077112
1200.2382595607235 0.9999977162552349
1200.239459799583 0.9999976820594361
1200.240660039643 0.9999976477188525
1200.2418602809032 0.9999976132298898
1200.2430605233635 0.9999975785914531
1200.2442607670241 0.999997543801266
1200.245461011885 0.9999975088556156
1200.2466612579462 0.9999974737539469
1200.2478615052075 0.9999974384922835
1200.249061753669 0.9999974030695771
1200.2502620033308 0.9999973674822054
1200.251462254193 0.9999973317287522
1200.252662506255 0.9999972958054059
1200.253862759518 0.9999972597111023
1200.2550630139808 0.9999972234421358
1200.2562632696438 0.9999971869976773
1200.257463526507 0.9999971503737629
1200.2586637845707 0.9999971135676227
1200.2598640438346 0.9999970765761143
1200.2610643042988 0.9999970393992889
1200.262264565963 0.9999970020326904
1200.2634648288276 0.999996964472351
1200.2646650928928 0.9999969267185626
1200.265865358158 0.9999968887661068
1200.2670656246232 0.9999968506135378
1200.268265892289 0.9999968122562677
1200.269466161155 0.9999967736931856
1200.2706664312213 0.9999967349207884
1200.2718667024878 0.9999966959356047
1200.2730669749546 0.9999966567363057
1200.2742672486218 0.9999966173185396
1200.275467523489 0.9999965776779012
1200.2766677995567 0.9999965378138382
1200.2778680768245 0.9999964977222099
1200.2790683552926 0.9999964573991548
1200.280268634961 0.9999964168416088
1200.2814689158297 0.9999963760462915
1200.2826691978987 0.9999963350107168
1200.283869481168 0.9999962937293984
1200.2850697656377 0.9999962522012369
1200.2862700513074 0.9999962104203877
1200.2874703381776 0.999996168384786
1200.288670626248 0.9999961260903685
1200.2898709155188 0.9999960835321874
1200.2910712059897 0.9999960407069732
1200.2922714976612 0.9999959976107787
1200.2934717905325 0.9999959542402641
1200.2946720846046 0.999995910589041
1200.2958723798768 0.9999958666544887
1200.2970726763492 0.9999958224333952
1200.298272974022 0.9999957779170845
1200.299473272895 0.9999957331054687
1200.3006735729684 0.9999956879910697
1200.3018738742421 0.9999956425700887
1200.303074176716 0.9999955968366536
1200.3042744803904 0.9999955507869913
1200.305474785265 0.9999955044141068
1200.3066750913397 0.9999954577139748
1200.307875398615 0.9999954106793106
1200.3090757070904 0.9999953633054088
1200.3102760167665 0.9999953155095791
1200.3114763276424 0.9999952672581865
1200.3126766397188 0.9999952185440806
1200.3138769529955 0.999995169360437
1200.3150772674728 0.9999951197006671
1200.3162775831502 0.9999950695577569
1200.3174779000278 0.9999950189243667
1200.3186782181058 0.9999949677936251
1200.3198785373843 0.9999949161569164
1200.3210788578629 0.9999948640066927
1200.3222791795417 0.999994811334939
1200.323479502421 0.999994758132387
1200.3246798265006 0.9999947043897447
1200.3258801517807 0.9999946500988119
1200.327080478261 0.9999945952502153
1200.3282808059414 0.9999945398332067
1200.3294811348223 0.9999944838383796
1200.3306814649036 0.999994427254378
1200.3318817961851 0.9999943700713503
1200.3330821286672 0.9999943122770872
1200.3342824623494 0.9999942538605133
1200.335482797232 0.9999941948091582
1200.336683133315 0.9999941351102531
1200.3378834705984 0.9999940747510603
1200.3390838090818 0.9999940137187311
1200.3402841487657 0.9999939519978451
1200.34148448965 0.9999938895750007
1200.3426848317345 0.9999938264346778
1200.3438851750195 0.9999937625620506
1200.3450855195047 0.9999936979399423
1200.3462858651903 0.9999936325522724
1200.3474862120763 0.9999935663810894
1200.3486865601626 0.9999934994088454
1200.3498869094492 0.9999934316164903
1200.3510872599363 0.9999933629840771
1200.3522876116235 0.9999932934927018
1200.3534879645113 0.9999932231196262
1200.3546883185993 0.9999931518458193
1200.3558886738876 0.999993079645277
1200.3570890303765 0.9999930064978251
1200.3582893880655 0.9999929323753552
1200.3594897469552 0.9999928572547253
1200.3606901070452 0.9999927811095501
1200.3618904683356 0.9999927039110432
1200.363090830826 0.9999926256316666
1200.3642911945171 0.9999925462393809
1200.3654915594084 0.9999924657043898
1200.3666919255 0.9999923839939289
1200.367892292792 0.999992301073912
1200.3690926612844 0.999992216908626
1200.3702930309773 0.9999921314591822
1200.3714934018706 0.9999920446880688
1200.372693773964 0.9999919565539379
1200.373894147258 0.9999918670130135
1200.3750945217523 0.9999917760208324
1200.376294897447 0.9999916835307977
1200.377495274342 0.9999915894909591
1200.3786956524375 0.9999914938497106
1200.379896031733 0.9999913965516923
1200.3810964122295 0.9999912975378412
1200.382296793926 0.9999911967479236
1200.3834971768229 0.9999910941137341
1200.3846975609201 0.9999909895684505
1200.385897946218 0.9999908830367817
1200.387098332716 0.9999907744415549
1200.3882987204145 0.9999906637002156
1200.3894991093134 0.9999905507235308
1200.3906994994124 0.9999904354172294
1200.3918998907125 0.9999903176815349
1200.3931002832123 0.9999901974076041
1200.3943006769127 0.9999900744821778
1200.3955010718137 0.9999899487800433
1200.396701467915 0.9999898201698408
1200.3979018652165 0.9999896885091799
1200.3991022637185 0.9999895536454073
1200.400302663421 0.9999894154121962
1200.4015030643238 0.9999892736325336
1200.402703466427 0.9999891281138164
1200.4039038697306 0.9999889786476107
1200.4051042742346 0.9999888250090931
1200.406304679939 0.9999886668595077
1200.407505086844 0.9999885041113998
1200.4087054949491 0.9999883363914381
1200.4099059042549 0.9999881633854624
1200.411106314761 0.9999879847448278
1200.4123067264675 0.9999878001114945
1200.4135071393741 0.9999876090097266
1200.4147075534815 0.9999874111193077
1200.4159079687893 0.9999872059002503
1200.4171083852973 0.999986992830583
1200.4183088030059 0.9999867713420457
1200.419509221915 0.9999865408189029
1200.4207096420243 0.9999863005872883
1200.421910063334 0.9999860499222905
1200.4231104858443 0.9999857880440776
1200.4243109095548 0.9999855141134042
1200.4255113344661 0.9999852272313202
1200.4267117605775 0.9999849264430946
1200.4279121878894 0.9999846107336204
1200.4291126164019 0.9999842790338692
1200.4303130461146 0.9999839302142586
1200.431513477028 0.9999835630845761
1200.4327139091415 0.99998317637017
1200.4339143424556 0.9999827686604877
1200.43511477697 0.9999823383586349
1200.436315212685 0.9999818835210799
1200.4375156496003 0.9999814016546927
1200.4387160877163 0.9999808892283346
1200.4399165270324 0.9999803416065279
1200.4411169675493 0.9999797516937315
1200.4423174092665 0.9999791089307785
1200.4435178521837 0.9999783962326685
1200.444718296302 0.9999775790250676
1200.4459187416205 0.9999765684830553
1200.4471191881394 0.9999751379493329
1200.4483196358588 0.999972944874447
1200.4495200847784 0.99996998267325
1200.450720534899 0.9999669102989291
1200.4519209862194 0.9999645183155427
1200.4531214387407 0.9999630727424665
1200.4543218924623 0.9999628997298873
1200.4555223473844 0.9999640601551517
1200.4567228035069 0.9999662378911979
1200.4579232608298 0.9999691915397438
1200.4591237193533 0.9999722665082064
1200.4603241790771 0.9999746753335399
1200.4615246400015 0.9999762654135165
1200.4627251021263 0.9999773517514873
1200.4639255654517 0.9999782050560684
1200.4651260299775 0.9999789393306774
1200.4663264957037 0.9999795974350707
1200.4675269626302 0.9999801993422981
1200.4687274307573 0.9999807567020468
1200.469927900085 0.9999812773773324
1200.471128370613 0.9999817664403278
1200.4723288423418 0.9999822277299026
1200.4735293152708 0.9999826639307492
1200.4747297894003 0.999983077096937
1200.4759302647303 0.9999834689006605
1200.477130741261 0.9999838407762729
1200.4783312189918 0.999984194038816
1200.4795316979232 0.9999845298962793
1200.480732178055 0.9999848494891294
1200.4819326593872 0.9999851539039469
1200.48313314192 0.9999854441669227
1200.4843336256533 0.9999857212479286
1200.4855341105872 0.9999859860620296
1200.4867345967214 0.9999862394608706
1200.487935084056 0.9999864822408142
1200.4891355725915 0.9999867151407728
1200.4903360623273 0.9999869388431494
1200.4915365532636 0.9999871539827129
1200.4927370454004 0.9999873611335558
1200.4939375387376 0.9999875608358204
1200.4951380332755 0.9999877536362323
1200.4963385290137 0.9999879398629598
1200.4975390259524 0.9999881199999401
1200.4987395240917 0.9999882944165693
1200.4999400234312 0.9999884634671421
1200.5011405239716 0.9999886274735744
1200.5023410257122 0.9999887868147316
1200.5035415286536 0.9999889415822986
1200.5047420327953 0.9999890921208551
1200.5059425381376 0.9999892386595248
1200.5071430446803 0.9999893814119309
1200.5083435524236 0.9999895205731755
1200.5095440613673 0.9999896563257837
1200.5107445715116 0.9999897888379138
1200.5119450828565 0.9999899182644565
1200.5131455954017 0.9999900447527372
1200.5143461091475 0.9999901684344731
1200.5155466240938 0.9999902894370502
1200.5167471402408 0.9999904078772874
1200.5179476575881 0.9999905238650961
1200.5191481761358 0.9999906375021818
1200.5203486958844 0.9999907488842974
1200.5215492168331 0.9999908581007214
1200.5227497389826 0.9999909652372283
1200.5239502623326 0.9999910703723811
1200.5251507868832 0.9999911735805571
1200.526351312634 0.9999912749326277
1200.5275518395856 0.9999913744944227
1200.5287523677375 0.9999914723297565
1200.5299528970902 0.9999915684975755
1200.5311534276432 0.999991663053473
1200.532353959397 0.9999917560519433
1200.5335544923512 0.99999184754236
1200.534755026506 0.9999919375735116
1200.535955561861 0.9999920261920853
1200.537156098417 0.999992113439804
1200.5383566361734 0.9999921993591167
1200.53955717513 0.9999922839904567
1200.5407577152876 0.9999923673712457
1200.5419582566456 0.9999924495364498
1200.5431587992039 0.9999925305227276
1200.544359342963 0.9999926103617464
1200.5455598879225 0.9999926890855527
1200.5467604340827 0.9999927667246888
1200.5479609814433 0.9999928433082179
1200.5491615300048 0.9999929188645444
1200.5503620797663 0.9999929934200998
1200.5515626307288 0.9999930670005076
1200.5527631828916 0.9999931396310936
1200.553963736255 0.9999932113358977
1200.5551642908188 0.9999932821367901
1200.5563648465834 0.9999933520563925
1200.5575654035486 0.9999934211161194
1200.5587659617142 0.9999934893369432
1200.5599665210802 0.9999935567383043
1200.561167081647 0.99999362333752
1200.5623676434145 0.9999936891549392
1200.5635682063823 0.9999937542074667
1200.5647687705507 0.9999938185120076
1200.5659693359198 0.9999938820842943
1200.5671699024892 0.9999939449415172
1200.5683704702594 0.9999940070986199
1200.5695710392304 0.9999940685698893
1200.5707716094014 0.9999941293687092
1200.5719721807734 0.9999941895100973
1200.5731727533457 0.9999942490074734
1200.5743733271188 0.9999943078716083
1200.5755739020922 0.9999943661162206
1200.5767744782663 0.9999944237538684
1200.577975055641 0.9999944807943014
1200.5791756342164 0.9999945372499551
1200.5803762139922 0.9999945931305172
1200.5815767949687 0.9999946484478521
1200.5827773771457 0.9999947032097835
1200.5839779605233 0.9999947574273544
1200.5851785451016 0.9999948111097907
1200.5863791308805 0.999994864265439
1200.5875797178599 0.9999949169032148
1200.5887803060398 0.9999949690333664
1200.5899808954202 0.9999950206607505
1200.5911814860015 0.9999950717952321
1200.5923820777832 0.9999951224455107
1200.5935826707655 0.9999951726155156
1200.5947832649483 0.9999952223158797
1200.595983860332 0.9999952715517543
1200.597184456916 0.999995320330276
1200.5983850547007 0.9999953686575479
1200.599585653686 0.999995416540692
1200.600786253872 0.9999954639840953
1200.6019868552585 0.9999955109963337
1200.6031874578455 0.9999955575816711
1200.6043880616332 0.9999956037441988
1200.6055886666215 0.999995649491478
1200.6067892728104 0.9999956948283941
1200.6079898802 0.9999957397601683
1200.60919048879 0.9999957842902532
1200.6103910985807 0.9999958284250277
1200.6115917095722 0.9999958721693379
1200.6127923217643 0.9999959155270715
1200.6139929351568 0.999995958501747
1200.61519354975 0.9999960010996568
1200.6163941655439 0.9999960433248135
1200.6175947825384 0.9999960851786636
1200.6187954007335 0.9999961266685272
1200.6199960201293 0.9999961677967479
1200.6211966407254 0.999996208567006
1200.6223972625226 0.9999962489836808
1200.62359788552 0.9999962890506049
1200.6247985097182 0.9999963287705326
1200.625999135117 0.9999963681481119
1200.6271997617164 0.9999964071853392
1200.6284003895164 0.9999964458870583
1200.6296010185172 0.9999964842549606
1200.6308016487183 0.9999965222935109
1200.6320022801203 0.9999965600052513
1200.6332029127227 0.9999965973938699
