Atmospheric Species: CH4_CO_CO2_H2O_NH3
Metallicity: 1
C/O_Ratio: 1.5
Wavelength[nm] Flux_variation
1999.999812280322 0.9998755533658302
2000.001812281134 0.9998780362563658
2000.003812283946 0.9998914555848282
2000.0058122887588 0.9999112647045195
2000.0078122955706 0.999928742235439
2000.0098123043829 0.9999386110164041
2000.0118123151951 0.9999458352768577
2000.0138123280071 0.9999556996379457
2000.0158123428193 0.9999665890074428
2000.017812359632 0.999973589082342
2000.0198123784444 0.9999741867371915
2000.0218123992565 0.9999700100955533
2000.0238124220684 0.9999651707696886
2000.025812446881 0.9999633480540117
2000.0278124736938 0.9999653409935172
2000.0298125025063 0.9999688455991406
2000.0318125333185 0.9999704364527833
2000.033812566131 0.9999681817008541
2000.0358126009435 0.999962601533667
2000.037812637756 0.999954928150571
2000.0398126765688 0.9999448694610488
2000.0418127173812 0.9999313835226822
2000.0438127601935 0.9999161993546546
2000.0458128050066 0.9999038876385354
2000.0478128518196 0.9998986486426689
2000.0498129006319 0.9999027830450986
2000.0518129514448 0.9999162996163835
2000.053813004258 0.9999362111847654
2000.055813059071 0.9999562640397228
2000.0578131158836 0.9999710259510844
2000.0598131746967 0.9999795901713904
2000.06181323551 0.999983027387358
2000.0638132983227 0.9999829696490293
2000.0658133631362 0.999981672444949
2000.0678134299496 0.9999811549821821
2000.0698134987629 0.9999821569879124
2000.0718135695763 0.9999839410915857
2000.0738136423897 0.9999853553576774
2000.0758137172033 0.9999859125137761
2000.0778137940172 0.9999854032328054
2000.079813872831 0.9999827818570184
2000.0818139536448 0.9999759826649329
2000.0838140364588 0.9999624987523841
2000.0858141212727 0.9999399130141005
2000.087814208087 0.9999107012062128
2000.089814296901 0.9998832534063166
2000.091814387715 0.9998630859392069
2000.0938144805295 0.9998529059490069
2000.095814575344 0.99985430995726
2000.0978146721586 0.9998671890782564
2000.0998147709731 0.9998896639335996
2000.101814871788 0.9999182537134373
2000.1038149746025 0.9999456170205325
2000.1058150794172 0.9999629317973221
2000.1078151862328 0.9999686320169195
2000.1098152950476 0.999966549679489
2000.1118154058631 0.9999626528341921
2000.1138155186784 0.9999617217624055
2000.115815633494 0.9999653754334596
2000.1178157503095 0.999971829633727
2000.1198158691257 0.9999776087186519
2000.121815989941 0.9999810376524899
2000.123816112757 0.9999835855875215
2000.1258162375732 0.9999868856844325
2000.1278163643894 0.9999899178868646
2000.1298164932057 0.9999899349311386
2000.1318166240221 0.999985065109934
2000.1338167568388 0.9999754462250711
2000.1358168916554 0.9999632300301318
2000.1378170284725 0.9999524086469634
2000.1398171672895 0.9999472862686212
2000.1418173081065 0.999950189720782
2000.1438174509237 0.999959985355627
2000.145817595741 0.9999717133453606
2000.1478177425586 0.9999797649159784
2000.1498178913766 0.999983225635052
2000.1518180421942 0.9999851209488887
2000.1538181950127 0.9999874790914512
2000.1558183498312 0.999989949234757
2000.1578185066492 0.9999916845439778
2000.1598186654676 0.9999926182371695
2000.1618188262864 0.9999929826700442
2000.1638189891055 0.9999925567877513
2000.165819153924 0.9999907672217101
2000.1678193207435 0.9999872883137674
2000.1698194895628 0.999982411092534
2000.1718196603822 0.9999769220892238
2000.1738198332023 0.9999716363718139
2000.1758200080221 0.9999673442639311
2000.177820184842 0.9999650173151777
2000.1798203636622 0.9999649080872683
2000.1818205444827 0.9999654550785997
2000.183820727303 0.9999641968100413
2000.1858209121242 0.999960019229708
2000.1878210989448 0.9999543810018648
2000.1898212877659 0.9999504641563653
2000.1918214785871 0.9999508904338401
2000.1938216714088 0.9999558586233835
2000.19582186623 0.9999629205828474
2000.1978220630526 0.9999688160723441
2000.1998222618745 0.9999722569012145
2000.2018224626968 0.9999741223215455
2000.2038226655195 0.9999747691185681
2000.205822870342 0.9999724080636081
2000.2078230771644 0.9999656158698095
2000.2098232859878 0.9999571721974624
2000.2118234968113 0.9999524054390553
2000.213823709635 0.9999542774812948
2000.2158239244584 0.9999610723114075
2000.2178241412826 0.9999670548707632
2000.2198243601067 0.9999667683035226
2000.2218245809313 0.9999598173426533
2000.2238248037554 0.9999501449471282
2000.2258250285802 0.9999422450845279
2000.2278252554056 0.9999382269693916
2000.2298254842308 0.9999375028512649
2000.2318257150564 0.9999395978169574
2000.2338259478825 0.9999457387598428
2000.2358261827083 0.9999563742791173
2000.2378264195343 0.9999691430203161
2000.2398266583607 0.9999805407696516
2000.2418268991873 0.9999887006337
2000.2438271420144 0.9999939353938672
2000.2458273868415 0.9999972795326864
2000.247827633669 0.9999991051466823
2000.2498278824967 0.9999990843643781
2000.2518281333246 0.9999971279441334
2000.2538283861531 0.9999940551268167
2000.255828640981 0.9999911971450532
2000.2578288978098 0.9999895356853363
2000.2598291566387 0.9999893136805283
2000.2618294174679 0.9999901178221164
2000.2638296802972 0.9999910872872727
2000.2658299451268 0.9999913337046165
2000.267830211957 0.999990488815638
2000.2698304807873 0.9999888427710937
2000.271830751618 0.9999870315910578
2000.2738310244486 0.9999856268344591
2000.2758312992798 0.9999846029330859
2000.277831576111 0.9999829779522461
2000.2798318549428 0.9999794715877399
2000.2818321357747 0.9999737376643292
2000.283832418607 0.999966293061677
2000.2858327034396 0.9999563609746088
2000.2878329902726 0.9999411700402274
2000.2898332791053 0.999921551523874
2000.2918335699385 0.9999048855457151
2000.2938338627723 0.9998976145213753
2000.2958341576061 0.9999017529148974
2000.2978344544404 0.9999166057425042
2000.299834753275 0.9999385423633977
2000.30183505411 0.9999605947625286
2000.3038353569448 0.9999769071726478
2000.3058356617803 0.9999862159221744
2000.3078359686162 0.9999891065053598
2000.3098362774524 0.9999853617170885
2000.3118365882883 0.9999750086121331
2000.313836901125 0.9999612198166864
2000.3158372159623 0.9999499586877035
2000.3178375327993 0.9999457559480691
2000.319837851637 0.9999490247406435
2000.321838172475 0.999956101937322
2000.3238384953136 0.9999613231054902
2000.3258388201518 0.9999605215365253
2000.3278391469905 0.9999523960284615
2000.3298394758299 0.999937622866482
2000.331839806669 0.9999194014795286
2000.3338401395092 0.9999038056893181
2000.3358404743494 0.9998964553149216
2000.33784081119 0.9998996958697611
2000.3398411500311 0.9999117583029595
2000.3418414908724 0.999925627813766
2000.3438418337141 0.9999348562249587
2000.3458421785558 0.9999416981839608
2000.3478425253984 0.9999506003777455
2000.3498428742414 0.999960848308205
2000.351843225084 0.9999689752969065
2000.353843577928 0.9999740769356553
2000.3558439327714 0.9999776635312771
2000.3578442896157 0.999980808128457
2000.3598446484605 0.9999838574707232
2000.361845009305 0.9999866522150048
2000.3638453721503 0.9999880956619286
2000.3658457369957 0.9999868067671291
2000.3678461038414 0.9999826770281999
2000.3698464726879 0.9999771694073908
2000.3718468435345 0.9999718354531094
2000.3738472163816 0.9999671449585218
2000.3758475912289 0.9999633529626938
2000.3778479680766 0.9999619034097562
2000.3798483469245 0.999964534359113
2000.3818487277726 0.9999709183564982
2000.3838491106217 0.9999778596530295
2000.3858494954707 0.9999812538267955
2000.3878498823208 0.9999795382182285
2000.389850271171 0.9999753681877553
2000.391850662021 0.99997301863789
2000.3938510548717 0.9999738738409084
2000.3958514497233 0.9999748313062747
2000.3978518465744 0.9999721147975401
2000.3998522454267 0.9999669180027657
2000.4018526462794 0.9999644030705213
2000.4038530491318 0.9999678966069178
2000.405853453985 0.9999760255569942
2000.407853860839 0.999984001732798
2000.4098542696927 0.9999880611547391
2000.4118546805466 0.9999885453498225
2000.4138550934015 0.9999877786816311
2000.4158555082572 0.9999871368011797
2000.4178559251125 0.9999865360320642
2000.4198563439686 0.9999849729357986
2000.421856764825 0.9999817759259706
2000.423857187682 0.9999781165600685
2000.425857612539 0.9999765564689937
2000.427858039397 0.999978734719959
2000.4298584682556 0.9999838047971207
2000.4318588991136 0.9999890145063968
2000.4338593319726 0.9999917272479241
2000.4358597668324 0.9999908018022978
2000.4378602036923 0.9999867746422867
2000.4398606425525 0.9999819544443965
2000.4418610834134 0.9999794320402485
2000.4438615262745 0.9999805652630102
2000.4458619711359 0.9999835898091922
2000.4478624179985 0.9999851017006388
2000.449862866861 0.9999830504540044
2000.4518633177238 0.9999782451391038
2000.453863770587 0.9999729191095267
2000.4558642254513 0.9999682140069259
2000.4578646823156 0.9999636032451633
2000.4598651411802 0.9999591375487392
2000.4618656020457 0.99995715684681
2000.4638660649114 0.9999603480538649
2000.4658665297777 0.9999688460483379
2000.4678669966447 0.9999795044239099
2000.4698674655117 0.999988150318054
2000.4718679363796 0.9999930199541881
2000.4738684092474 0.999995116825147
2000.475868884116 0.9999958894280179
2000.477869360985 0.999995686434027
2000.4798698398545 0.9999938330225968
2000.4818703207245 0.9999894553247004
2000.483870803595 0.9999819668259509
2000.485871288466 0.9999711810873544
2000.4878717753377 0.9999584760219747
2000.4898722642095 0.9999477948878721
2000.491872755082 0.9999434088432774
2000.4938732479552 0.9999469070251967
2000.4958737428285 0.999956258683357
2000.4978742397027 0.9999669559595926
2000.4998747385769 0.999975344671171
2000.5018752394521 0.9999805349633575
2000.5038757423272 0.9999828306798964
2000.5058762472029 0.9999827392467813
2000.5078767540795 0.999980958902147
2000.509877262956 0.9999777492931706
2000.5118777738342 0.9999733191914122
2000.5138782867118 0.9999691145211845
2000.5158788015904 0.9999669187624833
2000.5178793184689 0.9999658806620139
2000.519879837349 0.9999606189363205
2000.5218803582286 0.9999445701698145
2000.5238808811096 0.999919692272041
2000.5258814059907 0.9998966769831561
2000.5278819328719 0.9998826966833396
2000.5298824617544 0.9998787200108175
2000.5318829926364 0.9998834635497001
2000.5338835255197 0.9998948562871646
2000.5358840604035 0.9999099397626822
2000.537884597288 0.9999252089528439
2000.5398851361724 0.9999381901669825
2000.5418856770577 0.9999491348184962
2000.5438862199437 0.9999594571731248
2000.54588676483 0.9999687665883228
2000.5478873117172 0.9999755264479347
2000.5498878606047 0.9999798436761798
2000.5518884114929 0.9999832815714876
2000.5538889643813 0.9999864886389837
2000.5558895192703 0.9999884637115701
2000.5578900761602 0.9999877554964892
2000.5598906350506 0.9999840073559395
2000.5618911959411 0.9999786637743187
2000.5638917588328 0.999974203926211
2000.5658923237245 0.9999724649481412
2000.567892890617 0.9999735707040738
2000.5698934595102 0.9999762120461014
2000.5718940304037 0.999978926318113
2000.573894603298 0.9999811792178175
2000.575895178193 0.9999832317448198
2000.5778957550883 0.9999853013831891
2000.5798963339842 0.9999869557329278
2000.5818969148809 0.9999864427738812
2000.5838974977776 0.9999799465003334
2000.5858980826756 0.9999635987773763
2000.5878986695739 0.999939845276121
2000.589899258473 0.999917834472084
2000.591899849372 0.9999045846281093
2000.5939004422726 0.9999021769420022
2000.5959010371732 0.9999101627283805
2000.5979016340743 0.999925373490481
2000.599902232976 0.9999408465362387
2000.6019028338785 0.9999514510933851
2000.6039034367816 0.9999587313434494
2000.605904041685 0.9999635364629574
2000.6079046485897 0.9999600337711902
2000.6099052574943 0.9999405782665983
2000.6119058683998 0.999907564909859
2000.613906481306 0.9998727200162869
2000.6159070962128 0.9998444683830929
2000.61790771312 0.9998278104548167
2000.6199083320282 0.9998258048214451
2000.621908952937 0.9998389453300831
2000.623909575846 0.9998650399267129
2000.625910200756 0.9998995230268689
2000.627910827666 0.9999345913303077
2000.6299114565775 0.9999588789622119
2000.6319120874891 0.999967007727261
2000.633912720402 0.9999610404832824
2000.6359133553146 0.9999457298503006
2000.6379139922285 0.9999272030409112
2000.6399146311426 0.9999084730042244
2000.6419152720573 0.999888410161259
2000.643915914973 0.9998681208715959
2000.645916559889 0.9998530449181751
2000.6479172068057 0.999847811938527
2000.649917855723 0.9998541487616591
2000.6519185066409 0.9998718765613258
2000.6539191595598 0.9998987301183807
2000.6559198144796 0.999924934288232
2000.6579204713996 0.9999314365680221
2000.65992113032 0.9999161449627751
2000.6619217912419 0.9998976081159215
2000.6639224541639 0.9998860968722167
2000.6659231190863 0.9998786981019602
2000.6679237860099 0.9998667890431289
2000.6699244549338 0.9998505344716239
2000.6719251258585 0.9998390633193831
2000.6739257987842 0.9998373064360973
2000.67592647371 0.9998467587632653
2000.6779271506366 0.9998686427076112
2000.6799278295641 0.9999028010206227
2000.6819285104925 0.9999389391246666
2000.6839291934211 0.9999603347178747
2000.6859298783502 0.9999651453651431
2000.6879305652806 0.9999594542877802
2000.6899312542112 0.9999469350925786
2000.691931945143 0.999931616279272
2000.6939326380752 0.9999188528372858
2000.6959333330078 0.9999115619852124
2000.6979340299417 0.999909716452254
2000.6999347288759 0.9999132930426744
2000.7019354298113 0.9999234320474446
2000.7039361327465 0.9999391638777416
2000.705936837683 0.9999535450758215
2000.7079375446203 0.999958020410773
2000.7099382535578 0.9999526170467317
2000.7119389644963 0.9999449215867634
2000.7139396774357 0.9999416063419573
2000.7159403923756 0.9999448466620249
2000.7179411093164 0.999952564338049
2000.7199418282578 0.9999607241994776
2000.7219425491999 0.9999672719305086
2000.7239432721424 0.999972566996431
2000.7259439970862 0.9999765372446869
2000.7279447240305 0.9999789034188511
2000.7299454529755 0.9999807543991126
2000.7319461839213 0.9999832041242692
2000.7339469168678 0.9999857031329025
2000.735947651815 0.9999870145656147
2000.7379483887632 0.999987086169458
2000.7399491277117 0.9999870969271875
2000.741949868661 0.9999878640435911
2000.7439506116116 0.9999888933490345
2000.745951356562 0.9999892768787981
2000.7479521035139 0.9999889286199245
2000.7499528524665 0.9999879562688868
2000.7519536034195 0.9999848616364874
2000.7539543563735 0.9999766792654112
2000.7559551113281 0.9999627596513293
2000.7579558682833 0.9999479392214614
2000.75995662724 0.9999390442887708
2000.7619573881968 0.9999397508162878
2000.7639581511546 0.9999494844003146
2000.7659589161133 0.9999637248884565
2000.7679596830724 0.999976232184961
2000.7699604520324 0.999983715261502
2000.7719612229935 0.9999866591227533
2000.7739619959548 0.9999867752786921
2000.775962770917 0.9999859206688393
2000.7779635478798 0.9999856354178435
2000.7799643268443 0.9999863413190779
2000.7819651078087 0.9999872830530416
2000.783965890774 0.999987474349276
2000.7859666757402 0.9999868231755666
2000.7879674627075 0.9999864296762707
2000.789968251675 0.9999876004148351
2000.7919690426434 0.9999905481777532
2000.7939698356126 0.9999942196173611
2000.795970630583 0.9999973100891393
2000.7979714275539 0.9999992021407945
2000.7999722265256 1.0
2000.8019730274982 0.9999999633528389
2000.8039738304715 0.9999990780895531
2000.8059746354456 0.9999972108709664
2000.8079754424211 0.9999945130527383
2000.8099762513964 0.9999912931258352
2000.8119770623734 0.9999872371126254
2000.8139778753505 0.9999810532499805
2000.8159786903286 0.9999720405899909
2000.8179795073077 0.9999624386635015
2000.8199803262876 0.9999564290745927
2000.8219811472686 0.9999565663749724
2000.8239819702499 0.9999619244254521
2000.8259827952318 0.9999682399001416
2000.8279836222155 0.9999694831063041
2000.8299844511994 0.9999616882215923
2000.831985282184 0.9999472411894926
2000.8339861151694 0.9999334188512573
2000.835986950156 0.9999260658280024
2000.8379877871434 0.9999272566381328
2000.8399886261318 0.9999364776960643
2000.8419894671204 0.9999506052166642
2000.84399031011 0.9999638767092276
2000.8459911551006 0.9999718062577443
2000.8479920020925 0.9999751103526879
2000.8499928510848 0.9999772422424772
2000.8519937020778 0.999980334906913
2000.853994555072 0.9999842943601243
2000.855995410067 0.9999877246833216
2000.8579962670626 0.9999892475556538
2000.8599971260594 0.9999885818295016
2000.861997987057 0.9999866732844948
2000.8639988500552 0.9999849503085732
2000.8659997150544 0.9999844709027256
2000.8680005820545 0.9999852953542886
2000.8700014510555 0.9999862499329621
2000.872002322057 0.9999857751539323
2000.8740031950601 0.9999838467236228
2000.8760040700631 0.9999824851008176
2000.8780049470681 0.9999836388657202
2000.8800058260733 0.9999871998490613
2000.8820067070794 0.9999911669120929
2000.8840075900869 0.9999932681415301
2000.886008475095 0.9999924890835875
2000.8880093621042 0.9999892868848212
2000.8900102511134 0.9999847706996451
2000.892011142124 0.9999802148475653
2000.8940120351353 0.9999771286222442
2000.8960129301477 0.9999769029892065
2000.8980138271609 0.9999798443110345
2000.900014726175 0.9999845864518812
2000.90201562719 0.9999886583552177
2000.904016530206 0.99998984196693
2000.906017435223 0.9999872888007588
2000.908018342241 0.999981478860125
2000.9100192512599 0.9999734999637406
2000.9120201622795 0.9999651631138762
2000.9140210752998 0.9999589592611171
2000.916021990322 0.999957112209713
2000.918022907344 0.9999606653653205
2000.9200238263672 0.9999688467860043
2000.9220247473918 0.9999789019036992
2000.9240256704163 0.9999875477987441
2000.9260265954426 0.9999931973385541
2000.9280275224694 0.9999961366807268
2000.9300284514975 0.9999972191709818
2000.9320293825265 0.9999973587817166
2000.9340303155564 0.9999974874412934
2000.9360312505873 0.9999981019590849
2000.9380321876183 0.9999988848082967
2000.9400331266515 0.9999989517818629
2000.9420340676843 0.9999974387400644
2000.9440350107188 0.9999939710737227
2000.9460359557547 0.9999888547502993
2000.9480369027913 0.9999828291060675
2000.9500378518283 0.9999766250900223
2000.9520388028668 0.9999711549099319
2000.9540397559056 0.9999680131518849
2000.9560407109461 0.9999688344419962
2000.9580416679873 0.9999737500443824
2000.9600426270292 0.9999807775368649
2000.962043588072 0.999987146576583
2000.9640445511163 0.9999913241586573
2000.966045516161 0.9999933041589959
2000.9680464832072 0.9999932168497542
2000.9700474522538 0.9999905392891206
2000.9720484233017 0.9999851065365365
2000.9740493963504 0.9999786359926857
2000.9760503713999 0.9999738981081607
2000.9780513484511 0.999971765712617
2000.9800523275028 0.9999701032992057
2000.9820533085556 0.9999662686641472
2000.9840542916097 0.9999598901022317
2000.9860552766643 0.9999518095078136
2000.9880562637197 0.9999421280072587
2000.9900572527768 0.9999320791963094
2000.992058243834 0.9999256240961544
2000.9940592368928 0.9999264771057217
2000.996060231953 0.9999351150469262
2000.9980612290135 0.9999478209180062
2001.0000622280747 0.9999584521867455
2001.0020632291375 0.9999634105283933
2001.004064232201 0.9999626368515785
2001.0060652372658 0.9999564796966395
2001.0080662443318 0.9999458400316417
2001.0100672533981 0.9999343082883072
2001.0120682644658 0.9999270854691881
2001.0140692775344 0.9999277204997897
2001.0160702926044 0.9999362949760097
2001.018071309675 0.9999489544538036
2001.0200723287464 0.9999596054918984
2001.0220733498195 0.9999644071375923
2001.0240743728934 0.9999636072306426
2001.0260753979683 0.9999588971723522
2001.0280764250442 0.9999506372197805
2001.0300774541208 0.9999354913953015
2001.0320784851986 0.9999054576671108
2001.0340795182774 0.9998612913502257
2001.0360805533578 0.9998198776939645
2001.0380815904384 0.99978935524314
2001.0400826295206 0.9997696615471001
2001.0420836706037 0.9997601869943413
2001.0440847136879 0.999760530796075
2001.046085758773 0.999770161083251
2001.0480868058594 0.9997882320407713
2001.0500878549465 0.9998133548698905
2001.052088906035 0.9998418093359454
2001.054089959124 0.9998667593671561
2001.0560910142144 0.9998834060782884
