Atmospheric Species: CH4
Metallicity: 10000
C/O_Ratio: 0.5
Wavelength[nm] Flux_variation
1799.9989592438712 0.999999996513863
1800.0007592437303 0.9999999965138181
1800.0025592453896 0.9999999965137828
1800.004359248849 0.9999999965137601
1800.0061592541078 0.9999999965137527
1800.0079592611673 0.9999999965137609
1800.0097592700265 0.9999999965137809
1800.0115592806853 0.9999999965138215
1800.0133592931445 0.9999999965138217
1800.015159307404 0.9999999965138222
1800.0169593234634 0.9999999965138
1800.0187593413225 0.9999999965137548
1800.0205593609817 0.9999999965136901
1800.022359382441 0.9999999965136124
1800.0241594057002 0.9999999965135303
1800.0259594307595 0.9999999965134533
1800.0277594576187 0.9999999965133911
1800.0295594862782 0.9999999965133514
1800.0313595167377 0.9999999965133378
1800.0331595489968 0.9999999965133505
1800.034959583057 0.9999999965133864
1800.0367596189162 0.9999999965134417
1800.0385596565757 0.999999996513511
1800.0403596960355 0.9999999965135866
1800.0421597372952 0.999999996513655
1800.043959780355 0.9999999965137016
1800.0457598252146 0.9999999965137164
1800.0475598718742 0.9999999965136979
1800.0493599203348 0.9999999965136527
1800.0511599705944 0.999999996513589
1800.0529600226544 0.9999999965135107
1800.0547600765144 0.999999996513418
1800.0565601321746 0.9999999965133091
1800.0583601896344 0.9999999965131814
1800.060160248895 0.9999999965130336
1800.061960309955 0.9999999965128642
1800.0637603728153 0.9999999965126712
1800.0655604374756 0.999999996512454
1800.067360503936 0.9999999965122148
1800.0691605721963 0.9999999965119608
1800.070960642257 0.9999999965117038
1800.0727607141173 0.9999999965114577
1800.074560787778 0.9999999965112354
1800.0763608632387 0.9999999965110441
1800.0781609404996 0.999999996510886
1800.0799610195606 0.9999999965107591
1800.0817611004218 0.9999999965106596
1800.0835611830826 0.9999999965105826
1800.085361267544 0.999999996510521
1800.0871613538052 0.9999999965104653
1800.088961441866 0.999999996510405
1800.0907615317276 0.999999996510332
1800.0925616233892 0.9999999965102433
1800.094361716851 0.9999999965101419
1800.0961618121128 0.9999999965100337
1800.0979619091743 0.9999999965099243
1800.0997620080361 0.9999999965098164
1800.1015621086983 0.9999999965097107
1800.1033622111604 0.9999999965096061
1800.1051623154226 0.9999999965095026
1800.1069624214847 0.9999999965093995
1800.1087625293474 0.9999999965092965
1800.11056263901 0.9999999965091918
1800.1123627504724 0.9999999965090832
1800.1141628637351 0.9999999965089684
1800.115962978798 0.9999999965088471
1800.117763095661 0.999999996508721
1800.1195632143244 0.9999999965085931
1800.121363334787 0.9999999965084659
1800.1231634570509 0.9999999965083418
1800.1249635811143 0.9999999965082206
1800.1267637069775 0.9999999965081013
1800.1285638346415 0.9999999965079804
1800.1303639641053 0.9999999965078542
1800.1321640953695 0.9999999965077186
1800.1339642284333 0.9999999965075704
1800.1357643632975 0.9999999965074089
1800.137564499962 0.9999999965072355
1800.1393646384263 0.999999996507055
1800.1411647786908 0.9999999965068745
1800.1429649207557 0.9999999965067016
1800.1447650646205 0.9999999965065417
1800.1465652102856 0.9999999965063971
1800.148365357751 0.9999999965062674
1800.1501655070163 0.9999999965061499
1800.1519656580817 0.999999996506041
1800.1537658109473 0.9999999965059366
1800.1555659656133 0.9999999965058335
1800.1573661220793 0.9999999965057282
1800.1591662803455 0.9999999965056184
1800.160966440412 0.9999999965055024
1800.1627666022782 0.9999999965053796
1800.164566765945 0.9999999965052496
1800.1663669314116 0.9999999965051123
1800.1681670986784 0.9999999965049681
1800.1699672677457 0.9999999965048169
1800.1717674386132 0.9999999965046587
1800.1735676112805 0.9999999965044932
1800.1753677857482 0.9999999965043206
1800.177167962016 0.9999999965041401
1800.1789681400837 0.9999999965039517
1800.180768319952 0.9999999965037548
1800.1825685016202 0.9999999965035493
1800.1843686850887 0.9999999965033352
1800.1861688703573 0.9999999965031148
1800.187969057426 0.9999999965028927
1800.1897692462953 0.9999999965026775
1800.1915694369645 0.9999999965024772
1800.1933696294338 0.9999999965022989
1800.1951698237037 0.9999999965021434
1800.1969700197737 0.9999999965020077
1800.1987702176436 0.9999999965018841
1800.200570417314 0.9999999965017654
1800.2023706187845 0.9999999965016454
1800.204170822055 0.9999999965015212
1800.2059710271258 0.9999999965013939
1800.207771233997 0.9999999965012685
1800.2095714426682 0.9999999965011501
1800.2113716531396 0.9999999965010401
1800.2131718654114 0.9999999965009351
1800.2149720794832 0.9999999965008277
1800.2167722953552 0.9999999965007104
1800.2185725130275 0.9999999965005774
1800.2203727324998 0.9999999965004273
1800.222172953773 0.9999999965002605
1800.223973176846 0.9999999965000819
1800.2257734017192 0.9999999964999
1800.2275736283925 0.9999999964997278
1800.2293738568665 0.9999999964995826
1800.2311740871405 0.9999999964994808
1800.2329743192142 0.9999999964994325
1800.2347745530888 0.9999999964994376
1800.236574788763 0.9999999964994858
1800.2383750262381 0.9999999964995608
1800.2401752655132 0.9999999964996467
1800.2419755065885 0.9999999964997298
1800.2437757494642 0.9999999964998011
1800.2455759941402 0.9999999964998543
1800.247376240616 0.9999999964998864
1800.249176488892 0.999999996499899
1800.2509767389686 0.9999999964998958
1800.2527769908456 0.9999999964998826
1800.2545772445226 0.999999996499879
1800.2563775 0.9999999964999258
1800.2581777572773 0.9999999964999713
1800.259978016355 0.9999999965000153
1800.2617782772334 0.9999999965000572
1800.2635785399118 0.9999999965000975
1800.2653788043906 0.9999999965001364
1800.267179070669 0.9999999965001729
1800.2689793387483 0.9999999965002058
1800.2707796086277 0.9999999965002347
1800.2725798803074 0.9999999965002615
1800.2743801537872 0.999999996500288
1800.2761804290674 0.9999999965003147
1800.277980706148 0.9999999965003402
1800.2797809850285 0.9999999965003626
1800.2815812657095 0.999999996500381
1800.283381548191 0.9999999965003955
1800.285181832473 0.9999999965004084
1800.2869821185548 0.9999999965004223
1800.2887824064367 0.9999999965004384
1800.2905826961191 0.9999999965004567
1800.2923829876015 0.9999999965004761
1800.2941832808851 0.9999999965004959
1800.2959835759682 0.999999996500518
1800.297783872852 0.9999999965005456
1800.299584171536 0.9999999965005812
1800.3013844720203 0.999999996500624
1800.3031847743046 0.9999999965006705
1800.3049850783898 0.9999999965007154
1800.3067853842754 0.9999999965007536
1800.3085856919608 0.9999999965007816
1800.3103860014467 0.9999999965007987
1800.3121863127326 0.9999999965008085
1800.3139866258189 0.9999999965008193
1800.3157869407053 0.999999996500843
1800.3175872573925 0.999999996500889
1800.3193875758795 0.9999999965009586
1800.3211878961672 0.9999999965010432
1800.322988218255 0.9999999965011298
1800.324788542143 0.9999999965012067
1800.326588867832 0.9999999965012693
1800.328389195321 0.9999999965013197
1800.3301895246102 0.9999999965013652
1800.3319898557002 0.9999999965014126
1800.3337901885902 0.9999999965014643
1800.3355905232806 0.9999999965015177
1800.3373908597714 0.999999996501569
1800.3391911980623 0.9999999965016153
1800.3409915381535 0.999999996501658
1800.342791880045 0.9999999965017022
1800.344592223737 0.9999999965017538
1800.3463925692295 0.9999999965018171
1800.3481929165218 0.9999999965018941
1800.3499932656148 0.9999999965019857
1800.3517936165083 0.9999999965020913
1800.353593969202 0.9999999965022099
1800.355394323696 0.9999999965023383
1800.3571946799907 0.9999999965024703
1800.3589950380854 0.9999999965025973
1800.3607953979806 0.9999999965027115
1800.362595759676 0.9999999965028094
1800.364396123172 0.9999999965028934
1800.3661964884682 0.9999999965029711
1800.3679968555648 0.9999999965030514
1800.3697972244618 0.9999999965031389
1800.371597595159 0.9999999965032326
1800.3733979676567 0.9999999965033258
1800.375198341955 0.9999999965034113
1800.3769987180535 0.9999999965034837
1800.3787990959522 0.9999999965035418
1800.3805994756517 0.9999999965035877
1800.3823998571509 0.999999996503626
1800.3842002404513 0.9999999965036614
1800.3860006255513 0.9999999965036966
1800.387801012452 0.9999999965037335
1800.3896014011536 0.999999996503774
1800.391401791655 0.9999999965038217
1800.3932021839566 0.9999999965038806
1800.395002578059 0.9999999965039532
1800.3968029739617 0.9999999965040383
1800.3986033716649 0.9999999965041296
1800.4004037711682 0.9999999965042181
1800.4022041724722 0.9999999965042964
1800.4040045755767 0.9999999965043609
1800.4058049804812 0.9999999965044133
1800.4076053871865 0.9999999965044593
1800.4094057956918 0.9999999965045043
1800.4112062059978 0.999999996504552
1800.4130066181044 0.9999999965046027
1800.4148070320111 0.9999999965046545
1800.4166074477182 0.9999999965047062
1800.4184078652256 0.9999999965047571
1800.4202082845338 0.9999999965048102
1800.4220087056424 0.9999999965048703
1800.423809128551 0.9999999965049441
1800.42560955326 0.999999996505038
1800.4274099797701 0.9999999965051561
1800.4292104080803 0.9999999965052978
1800.4310108381903 0.9999999965054566
1800.4328112701016 0.9999999965056218
1800.4346117038128 0.9999999965057821
1800.436412139325 0.9999999965059277
1800.4382125766372 0.9999999965060526
1800.4400130157503 0.999999996506154
1800.4418134566633 0.9999999965062323
1800.4436138993767 0.9999999965062909
1800.445414343891 0.9999999965063361
1800.4472147902052 0.9999999965063736
1800.4490152383203 0.9999999965064086
1800.4508156882355 0.9999999965064442
1800.4526161399515 0.9999999965064816
1800.4544165934676 0.9999999965065206
1800.4562170487843 0.9999999965065581
1800.4580175059016 0.9999999965065904
1800.4598179648192 0.999999996506612
1800.4616184255372 0.9999999965066182
1800.463418888056 0.9999999965066065
1800.4652193523748 0.9999999965065781
1800.4670198184942 0.9999999965065357
1800.468820286414 0.999999996506483
1800.4706207561348 0.9999999965064216
1800.4724212276558 0.9999999965063515
1800.474221700977 0.9999999965062737
1800.476022176099 0.9999999965061906
1800.4778226530211 0.9999999965061077
1800.4796231317441 0.9999999965060286
1800.4814236122677 0.9999999965059551
1800.483224094591 0.9999999965058866
1800.4850245787152 0.9999999965058248
1800.4868250646402 0.9999999965057741
1800.4886255523654 0.9999999965057401
1800.4904260418912 0.9999999965057261
1800.4922265332175 0.9999999965057305
1800.4940270263437 0.9999999965057489
1800.4958275212716 0.9999999965057771
1800.497628017999 0.9999999965058132
1800.4994285165271 0.9999999965058562
1800.5012290168559 0.9999999965059039
1800.5030295189854 0.9999999965059501
1800.5048300229146 0.9999999965060141
1800.5066305286448 0.9999999965061053
1800.5084310361756 0.9999999965061735
1800.510231545507 0.9999999965062184
1800.5120320566386 0.9999999965062415
1800.5138325695712 0.9999999965062446
1800.5156330843038 0.9999999965062286
1800.517433600837 0.9999999965061962
1800.519234119171 0.9999999965061545
1800.521034639305 0.9999999965061158
1800.52283516124 0.9999999965060946
1800.5246356849752 0.9999999965061019
1800.5264362105113 0.9999999965061432
1800.5282367378475 0.999999996506219
1800.530037266984 0.9999999965063264
1800.5318377979218 0.9999999965064602
1800.5336383306599 0.9999999965066134
1800.5354388651986 0.9999999965067774
1800.5372394015374 0.9999999965069437
1800.539039939677 0.9999999965071062
1800.5408404796171 0.9999999965072601
1800.5426410213581 0.9999999965074022
1800.544441564899 0.9999999965075287
1800.5462421102409 0.9999999965076354
1800.5480426573831 0.9999999965077182
1800.549843206326 0.9999999965077744
1800.5516437570698 0.9999999965078054
1800.5534443096133 0.9999999965078157
1800.555244863958 0.9999999965078127
1800.5570454201031 0.9999999965078045
1800.5588459780488 0.9999999965077969
1800.5606465377953 0.9999999965077926
1800.5624470993416 0.9999999965077913
1800.564247662689 0.9999999965077906
1800.5660482278365 0.9999999965077887
1800.567848794785 0.9999999965077837
1800.569649363534 0.999999996507774
1800.5714499340836 0.9999999965077568
1800.5732505064339 0.9999999965077281
1800.5750510805847 0.9999999965076846
1800.5768516565358 0.9999999965076289
1800.5786522342883 0.9999999965075748
1800.5804528138403 0.9999999965075476
1800.582253395194 0.9999999965075781
1800.5840539783474 0.9999999965076861
1800.5858545633016 0.9999999965078709
1800.5876551500564 0.9999999965081108
1800.5894557386118 0.9999999965083795
1800.591256328968 0.9999999965086566
1800.5930569211246 0.999999996508932
1800.594857515082 0.9999999965092028
1800.59665811084 0.9999999965094667
1800.598458708398 0.9999999965097202
1800.6002593077574 0.9999999965099581
1800.6020599089168 0.9999999965101753
1800.603860511877 0.9999999965103687
1800.6056611166377 0.9999999965105392
1800.607461723199 0.9999999965106906
1800.609262331561 0.9999999965108293
1800.6110629417235 0.9999999965109623
1800.6128635536868 0.9999999965110951
1800.6146641674504 0.9999999965112307
1800.6164647830149 0.9999999965113708
1800.6182654003796 0.9999999965115155
1800.6200660195454 0.9999999965116634
1800.6218666405118 0.9999999965118131
1800.6236672632788 0.9999999965119631
1800.6254678878463 0.9999999965121124
1800.6272685142142 0.999999996512259
1800.629069142383 0.999999996512401
1800.630869772352 0.999999996512536
1800.6326704041226 0.9999999965126624
1800.6344710376932 0.9999999965127799
1800.6362716730644 0.9999999965128898
1800.6380723102366 0.9999999965129939
1800.6398729492091 0.999999996513093
1800.6416735899818 0.9999999965131889
1800.6434742325562 0.9999999965132824
1800.6452748769307 0.9999999965133742
1800.6470755231057 0.9999999965134628
1800.6488761710814 0.9999999965135452
1800.6506768208578 0.9999999965136173
1800.652477472435 0.9999999965136755
1800.6542781258127 0.9999999965137191
1800.656078780991 0.9999999965137485
1800.65787943797 0.9999999965137665
1800.6596800967498 0.9999999965137758
1800.66148075733 0.9999999965137805
1800.6632814197112 0.9999999965137863
1800.6650820838927 0.9999999965138006
1800.6668827498752 0.9999999965138308
1800.6686834176583 0.999999996513881
1800.6704840872417 0.9999999965139525
1800.6722847586261 0.9999999965140428
1800.6740854318116 0.999999996514148
1800.675886106797 0.9999999965142634
1800.6776867835833 0.9999999965143852
1800.6794874621703 0.9999999965145093
1800.6812881425583 0.9999999965146333
1800.6830888247466 0.9999999965147569
1800.6848895087362 0.9999999965148823
1800.6866901945255 0.9999999965150115
1800.688490882116 0.9999999965151466
1800.6902915715073 0.9999999965152874
1800.6920922626994 0.9999999965154313
1800.6938929556916 0.9999999965155744
1800.6956936504848 0.999999996515712
1800.6974943470789 0.9999999965158404
1800.6992950454735 0.9999999965159556
1800.7010957456691 0.9999999965160564
1800.702896447665 0.9999999965161439
1800.7046971514615 0.9999999965162212
1800.7064978570588 0.9999999965162915
1800.7082985644572 0.9999999965163573
1800.710099273656 0.9999999965164186
1800.7118999846555 0.999999996516475
1800.7137006974554 0.9999999965165265
1800.7155014120567 0.9999999965165739
1800.7173021284584 0.9999999965166183
1800.719102846661 0.9999999965166609
1800.7209035666635 0.9999999965167037
1800.7227042884679 0.9999999965167493
1800.7245050120723 0.9999999965168014
1800.7263057374778 0.999999996516862
1800.7281064646834 0.9999999965169314
1800.7299071936905 0.9999999965170069
1800.7317079244979 0.9999999965170847
1800.7335086571063 0.999999996517163
1800.7353093915149 0.9999999965172423
1800.7371101277247 0.9999999965173255
1800.738910865735 0.9999999965174156
1800.7407116055463 0.9999999965175146
1800.7425123471583 0.9999999965176227
1800.7443130905708 0.9999999965177371
1800.7461138357844 0.999999996517852
1800.7479145827986 0.9999999965179587
1800.7497153316133 0.9999999965180475
1800.7515160822288 0.9999999965181096
1800.7533168346454 0.9999999965181412
1800.7551175888625 0.9999999965181462
1800.7569183448804 0.9999999965181363
1800.758719102699 0.999999996518126
1800.7605198623187 0.9999999965181285
1800.7623206237388 0.9999999965181542
1800.7641213869597 0.9999999965182088
1800.7659221519814 0.9999999965182959
1800.7677229188037 0.9999999965184135
1800.769523687427 0.9999999965185552
1800.7713244578508 0.9999999965187094
1800.7731252300757 0.9999999965188647
1800.7749260041012 0.9999999965190111
1800.7767267799275 0.9999999965191432
1800.7785275575545 0.9999999965192589
1800.7803283369824 0.9999999965193599
1800.7821291182113 0.9999999965194495
1800.7839299012405 0.9999999965195312
1800.7857306860708 0.9999999965196087
1800.7875314727019 0.9999999965196852
1800.7893322611335 0.9999999965197629
1800.7911330513662 0.9999999965198441
1800.7929338433994 0.999999996519931
1800.7947346372334 0.999999996520025
1800.7965354328685 0.9999999965201273
1800.7983362303044 0.9999999965202379
1800.8001370295412 0.9999999965203568
1800.8019378305783 0.9999999965204847
1800.8037386334167 0.9999999965206237
1800.8055394380553 0.999999996520777
1800.807340244495 0.9999999965209463
1800.8091410527359 0.9999999965211304
1800.8109418627773 0.9999999965213249
1800.8127426746196 0.9999999965215239
1800.8145434882624 0.9999999965217223
1800.8163443037058 0.9999999965219137
1800.8181451209505 0.9999999965220919
1800.8199459399964 0.999999996522252
1800.8217467608426 0.9999999965223924
1800.82354758349 0.9999999965225176
1800.8253484079382 0.9999999965226352
1800.8271492341864 0.999999996522751
1800.8289500622361 0.9999999965228671
1800.8307508920861 0.9999999965229813
1800.8325517237377 0.9999999965230894
1800.8343525571897 0.9999999965231878
1800.8361533924426 0.9999999965232762
1800.8379542294967 0.9999999965233559
1800.8397550683515 0.9999999965234293
1800.8415559090063 0.9999999965234986
1800.843356751463 0.999999996523565
1800.84515759572 0.9999999965236298
1800.8469584417778 0.9999999965236949
1800.8487592896365 0.9999999965237623
1800.8505601392958 0.999999996523834
1800.8523609907566 0.9999999965239103
1800.8541618440174 0.9999999965239904
1800.85596269908 0.9999999965240719
1800.857763555943 0.9999999965241518
1800.8595644146067 0.9999999965242274
1800.8613652750714 0.9999999965242963
1800.863166137337 0.9999999965243579
1800.8649670014036 0.9999999965244135
1800.8667678672707 0.9999999965244649
1800.868568734939 0.9999999965245145
1800.8703696044079 0.9999999965245643
1800.8721704756779 0.9999999965246167
1800.8739713487485 0.9999999965246742
1800.87577222362 0.9999999965247388
1800.877573100293 0.9999999965248122
1800.8793739787664 0.9999999965248942
1800.8811748590406 0.9999999965249844
1800.882975741116 0.9999999965250812
1800.8847766249924 0.9999999965251836
1800.8865775106694 0.9999999965252908
1800.8883783981469 0.9999999965254018
1800.890179287426 0.9999999965255149
1800.8919801785055 0.9999999965256255
1800.893781071386 0.9999999965257275
1800.8955819660673 0.9999999965258135
1800.89738286255 0.9999999965258789
1800.899183760833 0.9999999965259229
1800.9009846609176 0.9999999965259498
1800.9027855628024 0.9999999965259667
1800.9045864664881 0.999999996525972
1800.906387371975 0.9999999965259756
1800.9081882792627 0.9999999965259786
1800.9099891883516 0.9999999965259646
1800.9117900992412 0.9999999965259871
1800.9135910119317 0.9999999965260007
1800.915391926423 0.9999999965260277
1800.9171928427154 0.9999999965260715
1800.9189937608087 0.9999999965261328
1800.9207946807028 0.9999999965262085
1800.922595602398 0.9999999965262939
1800.924396525894 0.9999999965263835
1800.9261974511908 0.9999999965264725
1800.9279983782883 0.9999999965265571
1800.9297993071875 0.9999999965266347
1800.931600237887 0.9999999965267015
1800.9334011703877 0.9999999965267526
1800.9352021046896 0.9999999965267832
1800.9370030407918 0.9999999965267905
1800.938803978695 0.9999999965267775
1800.9406049183995 0.999999996526756
1800.9424058599047 0.9999999965267419
1800.944206803211 0.9999999965267481
1800.9460077483184 0.9999999965267787
1800.9478086952265 0.999999996526829
1800.9496096439352 0.9999999965268912
