Atmospheric Species: CO
Metallicity: 10000
C/O_Ratio: 0.5
Wavelength[nm] Flux_variation
1999.999812280322 1.0
2000.001812281134 0.9999999990932348
2000.003812283946 0.9999999990024464
2000.0058122887588 0.9999999989116495
2000.0078122955706 0.9999999988208429
2000.0098123043829 0.999999998730026
2000.0118123151951 0.9999999986391975
2000.0138123280071 0.9999999985483572
2000.0158123428193 0.9999999984575045
2000.017812359632 0.9999999983666403
2000.0198123784444 0.9999999982757646
2000.0218123992565 0.9999999981848776
2000.0238124220684 0.9999999980939792
2000.025812446881 0.9999999980030682
2000.0278124736938 0.9999999979121433
2000.0298125025063 0.9999999978212035
2000.0318125333185 0.9999999977302481
2000.033812566131 0.9999999976392763
2000.0358126009435 0.999999997548288
2000.037812637756 0.999999997457283
2000.0398126765688 0.9999999973662607
2000.0418127173812 0.9999999972752207
2000.0438127601935 0.9999999971841628
2000.0458128050066 0.9999999970930863
2000.0478128518196 0.999999997001991
2000.0498129006319 0.999999996910877
2000.0518129514448 0.9999999968197449
2000.053813004258 0.9999999967285957
2000.055813059071 0.9999999966374307
2000.0578131158836 0.9999999965462506
2000.0598131746967 0.9999999964550553
2000.06181323551 0.9999999963638435
2000.0638132983227 0.9999999962726139
2000.0658133631362 0.9999999961813645
2000.0678134299496 0.9999999960900942
2000.0698134987629 0.9999999959988026
2000.0718135695763 0.9999999959074899
2000.0738136423897 0.9999999958161561
2000.0758137172033 0.9999999957248018
2000.0778137940172 0.9999999956334277
2000.079813872831 0.9999999955420343
2000.0818139536448 0.9999999954506227
2000.0838140364588 0.9999999953591937
2000.0858141212727 0.9999999952677483
2000.087814208087 0.9999999951762876
2000.089814296901 0.9999999950848126
2000.091814387715 0.999999994993324
2000.0938144805295 0.9999999949018229
2000.095814575344 0.9999999948103092
2000.0978146721586 0.999999994718783
2000.0998147709731 0.9999999946272449
2000.101814871788 0.9999999945356962
2000.1038149746025 0.9999999944441411
2000.1058150794172 0.9999999943525858
2000.1078151862328 0.9999999942610374
2000.1098152950476 0.9999999941694997
2000.1118154058631 0.9999999940779708
2000.1138155186784 0.9999999939864432
2000.115815633494 0.999999993894907
2000.1178157503095 0.9999999938033535
2000.1198158691257 0.9999999937117767
2000.121815989941 0.9999999936201726
2000.123816112757 0.9999999935285379
2000.1258162375732 0.9999999934368695
2000.1278163643894 0.999999993345164
2000.1298164932057 0.9999999932534174
2000.1318166240221 0.9999999931616257
2000.1338167568388 0.9999999930697845
2000.1358168916554 0.9999999929778897
2000.1378170284725 0.999999992885937
2000.1398171672895 0.9999999927939225
2000.1418173081065 0.9999999927018419
2000.1438174509237 0.9999999926096905
2000.145817595741 0.9999999925174632
2000.1478177425586 0.9999999924251549
2000.1498178913766 0.999999992332761
2000.1518180421942 0.9999999922402771
2000.1538181950127 0.9999999921476984
2000.1558183498312 0.9999999920550204
2000.1578185066492 0.9999999919622389
2000.1598186654676 0.9999999918693492
2000.1618188262864 0.9999999917763462
2000.1638189891055 0.9999999916832251
2000.165819153924 0.9999999915899805
2000.1678193207435 0.9999999914966071
2000.1698194895628 0.9999999914030996
2000.1718196603822 0.9999999913094524
2000.1738198332023 0.9999999912156602
2000.1758200080221 0.9999999911217174
2000.177820184842 0.9999999910276187
2000.1798203636622 0.9999999909333587
2000.1818205444827 0.9999999908389322
2000.183820727303 0.9999999907443345
2000.1858209121242 0.9999999906495609
2000.1878210989448 0.9999999905546076
2000.1898212877659 0.9999999904594713
2000.1918214785871 0.9999999903641493
2000.1938216714088 0.9999999902686403
2000.19582186623 0.9999999901729439
2000.1978220630526 0.9999999900770657
2000.1998222618745 0.9999999899810009
2000.2018224626968 0.9999999898847582
2000.2038226655195 0.9999999897883456
2000.205822870342 0.9999999896917728
2000.2078230771644 0.9999999895950541
2000.2098232859878 0.9999999894982058
2000.2118234968113 0.9999999894012485
2000.213823709635 0.9999999893042096
2000.2158239244584 0.9999999892071088
2000.2178241412826 0.9999999891099802
2000.2198243601067 0.9999999890128582
2000.2218245809313 0.9999999889157796
2000.2238248037554 0.999999988818783
2000.2258250285802 0.9999999887219078
2000.2278252554056 0.9999999886251917
2000.2298254842308 0.9999999885286714
2000.2318257150564 0.9999999884323848
2000.2338259478825 0.9999999883363778
2000.2358261827083 0.9999999882407179
2000.2378264195343 0.9999999881455055
2000.2398266583607 0.9999999880508702
2000.2418268991873 0.9999999879569362
2000.2438271420144 0.9999999878637734
2000.2458273868415 0.9999999877713677
2000.247827633669 0.999999987679641
2000.2498278824967 0.9999999875885085
2000.2518281333246 0.9999999874979274
2000.2538283861531 0.9999999874079202
2000.255828640981 0.9999999873185592
2000.2578288978098 0.9999999872299239
2000.2598291566387 0.9999999871420447
2000.2618294174679 0.999999987054873
2000.2638296802972 0.9999999869682974
2000.2658299451268 0.9999999868821903
2000.267830211957 0.9999999867964462
2000.2698304807873 0.9999999867109913
2000.271830751618 0.9999999866257758
2000.2738310244486 0.9999999865407605
2000.2758312992798 0.9999999864559086
2000.277831576111 0.9999999863711825
2000.2798318549428 0.9999999862865435
2000.2818321357747 0.9999999862019532
2000.283832418607 0.9999999861173745
2000.2858327034396 0.9999999860327728
2000.2878329902726 0.9999999859481172
2000.2898332791053 0.9999999858633768
2000.2918335699385 0.9999999857785346
2000.2938338627723 0.9999999856935665
2000.2958341576061 0.9999999856084562
2000.2978344544404 0.99999998552319
2000.299834753275 0.9999999854377577
2000.30183505411 0.9999999853521517
2000.3038353569448 0.9999999852663669
2000.3058356617803 0.9999999851803969
2000.3078359686162 0.9999999850942474
2000.3098362774524 0.999999985007915
2000.3118365882883 0.9999999849214012
2000.313836901125 0.9999999848347088
2000.3158372159623 0.9999999847478411
2000.3178375327993 0.9999999846608028
2000.319837851637 0.9999999845735981
2000.321838172475 0.9999999844862325
2000.3238384953136 0.9999999843987112
2000.3258388201518 0.99999998431104
2000.3278391469905 0.9999999842232243
2000.3298394758299 0.9999999841352702
2000.331839806669 0.999999984047183
2000.3338401395092 0.9999999839589687
2000.3358404743494 0.9999999838706325
2000.33784081119 0.9999999837821799
2000.3398411500311 0.9999999836936162
2000.3418414908724 0.9999999836049462
2000.3438418337141 0.999999983516175
2000.3458421785558 0.9999999834273072
2000.3478425253984 0.9999999833383473
2000.3498428742414 0.9999999832492993
2000.351843225084 0.9999999831601678
2000.353843577928 0.9999999830709564
2000.3558439327714 0.9999999829816691
2000.3578442896157 0.9999999828923095
2000.3598446484605 0.9999999828028807
2000.361845009305 0.999999982713386
2000.3638453721503 0.9999999826238282
2000.3658457369957 0.9999999825342097
2000.3678461038414 0.9999999824445338
2000.3698464726879 0.9999999823548024
2000.3718468435345 0.9999999822650182
2000.3738472163816 0.9999999821751833
2000.3758475912289 0.9999999820852997
2000.3778479680766 0.9999999819953698
2000.3798483469245 0.9999999819053952
2000.3818487277726 0.9999999818153776
2000.3838491106217 0.9999999817253187
2000.3858494954707 0.9999999816352202
2000.3878498823208 0.9999999815450834
2000.389850271171 0.9999999814549096
2000.391850662021 0.9999999813647005
2000.3938510548717 0.9999999812744574
2000.3958514497233 0.9999999811841821
2000.3978518465744 0.9999999810938757
2000.3998522454267 0.999999981003539
2000.4018526462794 0.999999980913173
2000.4038530491318 0.9999999808227783
2000.405853453985 0.9999999807323556
2000.407853860839 0.9999999806419059
2000.4098542696927 0.9999999805514295
2000.4118546805466 0.9999999804609272
2000.4138550934015 0.9999999803703994
2000.4158555082572 0.9999999802798466
2000.4178559251125 0.9999999801892693
2000.4198563439686 0.999999980098668
2000.421856764825 0.999999980008043
2000.423857187682 0.9999999799173949
2000.425857612539 0.9999999798267238
2000.427858039397 0.9999999797360302
2000.4298584682556 0.9999999796453141
2000.4318588991136 0.9999999795545761
2000.4338593319726 0.9999999794638161
2000.4358597668324 0.9999999793730348
2000.4378602036923 0.999999979282232
2000.4398606425525 0.9999999791914085
2000.4418610834134 0.9999999791005642
2000.4438615262745 0.9999999790096995
2000.4458619711359 0.9999999789188153
2000.4478624179985 0.9999999788279115
2000.449862866861 0.9999999787369884
2000.4518633177238 0.9999999786460464
2000.453863770587 0.9999999785550858
2000.4558642254513 0.9999999784641072
2000.4578646823156 0.9999999783731108
2000.4598651411802 0.9999999782820976
2000.4618656020457 0.9999999781910683
2000.4638660649114 0.9999999781000238
2000.4658665297777 0.999999978008965
2000.4678669966447 0.9999999779178929
2000.4698674655117 0.9999999778268084
2000.4718679363796 0.9999999777357126
2000.4738684092474 0.9999999776446062
2000.475868884116 0.9999999775534901
2000.477869360985 0.9999999774623646
2000.4798698398545 0.99999997737123
2000.4818703207245 0.9999999772800873
2000.483870803595 0.9999999771889386
2000.485871288466 0.9999999770977881
2000.4878717753377 0.9999999770066423
2000.4898722642095 0.9999999769155079
2000.491872755082 0.9999999768243876
2000.4938732479552 0.9999999767332791
2000.4958737428285 0.999999976642177
2000.4978742397027 0.9999999765510754
2000.4998747385769 0.9999999764599711
2000.5018752394521 0.999999976368863
2000.5038757423272 0.9999999762777514
2000.5058762472029 0.9999999761866356
2000.5078767540795 0.9999999760955153
2000.509877262956 0.9999999760043885
2000.5118777738342 0.9999999759132537
2000.5138782867118 0.9999999758221092
2000.5158788015904 0.9999999757309532
2000.5178793184689 0.9999999756397843
2000.519879837349 0.9999999755486008
2000.5218803582286 0.999999975457401
2000.5238808811096 0.9999999753661833
2000.5258814059907 0.9999999752749459
2000.5278819328719 0.9999999751836874
2000.5298824617544 0.9999999750924063
2000.5318829926364 0.999999975001102
2000.5338835255197 0.9999999749097743
2000.5358840604035 0.999999974818423
2000.537884597288 0.9999999747270474
2000.5398851361724 0.9999999746356458
2000.5418856770577 0.9999999745442157
2000.5438862199437 0.9999999744527538
2000.54588676483 0.9999999743612568
2000.5478873117172 0.9999999742697223
2000.5498878606047 0.9999999741781482
2000.5518884114929 0.9999999740865326
2000.5538889643813 0.9999999739948741
2000.5558895192703 0.999999973903171
2000.5578900761602 0.999999973811422
2000.5598906350506 0.9999999737196258
2000.5618911959411 0.9999999736277809
2000.5638917588328 0.9999999735358863
2000.5658923237245 0.9999999734439412
2000.567892890617 0.9999999733519449
2000.5698934595102 0.9999999732598971
2000.5718940304037 0.9999999731677978
2000.573894603298 0.9999999730756477
2000.575895178193 0.9999999729834479
2000.5778957550883 0.9999999728912018
2000.5798963339842 0.9999999727989083
2000.5818969148809 0.999999972706572
2000.5838974977776 0.9999999726141966
2000.5858980826756 0.9999999725217876
2000.5878986695739 0.9999999724293511
2000.589899258473 0.9999999723368955
2000.591899849372 0.9999999722444305
2000.5939004422726 0.9999999721519666
2000.5959010371732 0.9999999720595147
2000.5979016340743 0.9999999719670853
2000.599902232976 0.9999999718746891
2000.6019028338785 0.9999999717823369
2000.6039034367816 0.9999999716900402
2000.605904041685 0.99999997159781
2000.6079046485897 0.9999999715056566
2000.6099052574943 0.9999999714135881
2000.6119058683998 0.9999999713216114
2000.613906481306 0.9999999712297349
2000.6159070962128 0.9999999711379739
2000.61790771312 0.9999999710463581
2000.6199083320282 0.999999970954934
2000.621908952937 0.9999999708637548
2000.623909575846 0.9999999707728574
2000.625910200756 0.9999999706822418
2000.627910827666 0.9999999705918703
2000.6299114565775 0.9999999705016897
2000.6319120874891 0.9999999704116528
2000.633912720402 0.9999999703217293
2000.6359133553146 0.9999999702319037
2000.6379139922285 0.9999999701421675
2000.6399146311426 0.9999999700525137
2000.6419152720573 0.9999999699629343
2000.643915914973 0.9999999698734194
2000.645916559889 0.9999999697839577
2000.6479172068057 0.9999999696945367
2000.649917855723 0.9999999696051449
2000.6519185066409 0.9999999695157705
2000.6539191595598 0.999999969426403
2000.6559198144796 0.9999999693370328
2000.6579204713996 0.9999999692476514
2000.65992113032 0.9999999691582517
2000.6619217912419 0.9999999690688278
2000.6639224541639 0.9999999689793745
2000.6659231190863 0.9999999688898875
2000.6679237860099 0.9999999688003633
2000.6699244549338 0.9999999687107987
2000.6719251258585 0.9999999686211974
2000.6739257987842 0.9999999685315604
2000.67592647371 0.999999968441891
2000.6779271506366 0.9999999683521903
2000.6799278295641 0.9999999682624566
2000.6819285104925 0.9999999681726861
2000.6839291934211 0.9999999680828757
2000.6859298783502 0.9999999679930237
2000.6879305652806 0.99999996790313
2000.6899312542112 0.9999999678131954
2000.691931945143 0.9999999677232217
2000.6939326380752 0.9999999676332101
2000.6959333330078 0.999999967543162
2000.6979340299417 0.9999999674530784
2000.6999347288759 0.9999999673629605
2000.7019354298113 0.999999967272809
2000.7039361327465 0.999999967182625
2000.705936837683 0.9999999670924089
2000.7079375446203 0.9999999670021618
2000.7099382535578 0.9999999669118842
2000.7119389644963 0.9999999668215771
2000.7139396774357 0.9999999667312415
2000.7159403923756 0.9999999666408783
2000.7179411093164 0.9999999665504885
2000.7199418282578 0.9999999664600729
2000.7219425491999 0.9999999663696323
2000.7239432721424 0.9999999662791679
2000.7259439970862 0.9999999661886805
2000.7279447240305 0.9999999660981707
2000.7299454529755 0.9999999660076395
2000.7319461839213 0.9999999659170878
2000.7339469168678 0.9999999658265164
2000.735947651815 0.9999999657359261
2000.7379483887632 0.9999999656453176
2000.7399491277117 0.9999999655546916
2000.741949868661 0.9999999654640491
2000.7439506116116 0.9999999653733904
2000.745951356562 0.9999999652827162
2000.7479521035139 0.9999999651920272
2000.7499528524665 0.9999999651013239
2000.7519536034195 0.9999999650106072
2000.7539543563735 0.9999999649198774
2000.7559551113281 0.999999964829136
2000.7579558682833 0.9999999647383836
2000.75995662724 0.9999999646476211
2000.7619573881968 0.9999999645568486
2000.7639581511546 0.999999964466066
2000.7659589161133 0.9999999643752734
2000.7679596830724 0.9999999642844709
2000.7699604520324 0.9999999641936588
2000.7719612229935 0.9999999641028373
2000.7739619959548 0.9999999640120071
2000.775962770917 0.9999999639211681
2000.7779635478798 0.9999999638303209
2000.7799643268443 0.9999999637394658
2000.7819651078087 0.9999999636486029
2000.783965890774 0.9999999635577325
2000.7859666757402 0.9999999634668548
2000.7879674627075 0.9999999633759702
2000.789968251675 0.9999999632850785
2000.7919690426434 0.9999999631941802
2000.7939698356126 0.9999999631032754
2000.795970630583 0.9999999630123643
2000.7979714275539 0.9999999629214469
2000.7999722265256 0.9999999628305234
2000.8019730274982 0.999999962739594
2000.8039738304715 0.9999999626486589
2000.8059746354456 0.9999999625577182
2000.8079754424211 0.9999999624667719
2000.8099762513964 0.9999999623758203
2000.8119770623734 0.9999999622848633
2000.8139778753505 0.9999999621939013
2000.8159786903286 0.9999999621029342
2000.8179795073077 0.9999999620119622
2000.8199803262876 0.9999999619209853
2000.8219811472686 0.9999999618300035
2000.8239819702499 0.9999999617390171
2000.8259827952318 0.999999961648026
2000.8279836222155 0.9999999615570303
2000.8299844511994 0.9999999614660301
2000.831985282184 0.9999999613750256
2000.8339861151694 0.9999999612840166
2000.835986950156 0.9999999611930034
2000.8379877871434 0.999999961101986
2000.8399886261318 0.9999999610109643
2000.8419894671204 0.9999999609199387
2000.84399031011 0.9999999608289091
2000.8459911551006 0.9999999607378753
2000.8479920020925 0.9999999606468376
2000.8499928510848 0.9999999605557958
2000.8519937020778 0.9999999604647499
2000.853994555072 0.9999999603737001
2000.855995410067 0.9999999602826464
2000.8579962670626 0.9999999601915885
2000.8599971260594 0.9999999601005269
2000.861997987057 0.9999999600094613
2000.8639988500552 0.9999999599183919
2000.8659997150544 0.9999999598273186
2000.8680005820545 0.9999999597362416
2000.8700014510555 0.9999999596451605
2000.872002322057 0.999999959554076
2000.8740031950601 0.9999999594629878
2000.8760040700631 0.9999999593718961
2000.8780049470681 0.9999999592808009
2000.8800058260733 0.9999999591897021
2000.8820067070794 0.9999999590985996
2000.8840075900869 0.9999999590074936
2000.886008475095 0.999999958916384
2000.8880093621042 0.9999999588252708
2000.8900102511134 0.9999999587341543
2000.892011142124 0.9999999586430346
2000.8940120351353 0.999999958551912
2000.8960129301477 0.9999999584607865
2000.8980138271609 0.9999999583696586
2000.900014726175 0.9999999582785284
2000.90201562719 0.9999999581873962
2000.904016530206 0.9999999580962625
2000.906017435223 0.9999999580051276
2000.908018342241 0.9999999579139918
2000.9100192512599 0.9999999578228553
2000.9120201622795 0.9999999577317185
2000.9140210752998 0.9999999576405809
2000.916021990322 0.9999999575494433
2000.918022907344 0.9999999574583053
2000.9200238263672 0.9999999573671676
2000.9220247473918 0.9999999572760319
2000.9240256704163 0.9999999571849006
2000.9260265954426 0.9999999570937769
2000.9280275224694 0.9999999570026621
2000.9300284514975 0.9999999569115553
2000.9320293825265 0.9999999568204542
2000.9340303155564 0.9999999567293555
2000.9360312505873 0.9999999566382571
2000.9380321876183 0.9999999565471582
2000.9400331266515 0.9999999564560583
2000.9420340676843 0.9999999563649574
2000.9440350107188 0.9999999562738554
2000.9460359557547 0.9999999561827517
2000.9480369027913 0.9999999560916464
2000.9500378518283 0.9999999560005387
2000.9520388028668 0.9999999559094283
2000.9540397559056 0.9999999558183149
2000.9560407109461 0.9999999557271979
2000.9580416679873 0.9999999556360769
2000.9600426270292 0.9999999555449516
2000.962043588072 0.9999999554538216
2000.9640445511163 0.9999999553626866
2000.966045516161 0.9999999552715463
2000.9680464832072 0.9999999551804004
2000.9700474522538 0.9999999550892489
2000.9720484233017 0.9999999549980915
2000.9740493963504 0.9999999549069281
2000.9760503713999 0.9999999548157585
2000.9780513484511 0.9999999547245829
2000.9800523275028 0.9999999546334011
2000.9820533085556 0.9999999545422129
2000.9840542916097 0.9999999544510186
2000.9860552766643 0.999999954359818
2000.9880562637197 0.9999999542686117
2000.9900572527768 0.9999999541773995
2000.992058243834 0.9999999540861819
2000.9940592368928 0.9999999539949591
2000.996060231953 0.9999999539037311
2000.9980612290135 0.9999999538124981
2001.0000622280747 0.9999999537212602
2001.0020632291375 0.9999999545367829
2001.004064232201 0.9999999545363244
2001.0060652372658 0.9999999545358708
2001.0080662443318 0.9999999545354233
2001.0100672533981 0.9999999545349835
2001.0120682644658 0.9999999545345528
2001.0140692775344 0.9999999545341324
2001.0160702926044 0.999999954533723
2001.018071309675 0.9999999545333246
2001.0200723287464 0.9999999545329376
2001.0220733498195 0.9999999545325622
2001.0240743728934 0.9999999545321998
2001.0260753979683 0.9999999545318526
2001.0280764250442 0.9999999545315233
2001.0300774541208 0.999999954531214
2001.0320784851986 0.9999999545309262
2001.0340795182774 0.9999999545306606
2001.0360805533578 0.9999999545304172
2001.0380815904384 0.9999999545301959
2001.0400826295206 0.9999999545299967
2001.0420836706037 0.9999999545298197
2001.0440847136879 0.9999999545296654
2001.046085758773 0.999999954529534
2001.0480868058594 0.9999999545294261
2001.0500878549465 0.9999999545293412
2001.052088906035 0.9999999545292789
2001.054089959124 0.999999954529239
2001.0560910142144 0.999999954529221
