Atmospheric Species: CO
Metallicity: 10
C/O_Ratio: 1.5
Wavelength[nm] Flux_variation
2299.999916647247 1.0
2300.0022166483136 0.9999999999737957
2300.00451665168 0.9999999999402102
2300.006816657347 0.9999999998995778
2300.0091166653133 0.9999999998522107
2300.0114166755798 0.9999999997984109
2300.0137166881464 0.9999999997384502
2300.016016703013 0.9999999996725969
2300.0183167201794 0.9999999996010983
2300.0206167396464 0.9999999995241886
2300.022916761413 0.9999999994420936
2300.0252167854796 0.9999999993550212
2300.0275168118465 0.9999999992631697
2300.0298168405134 0.9999999991667313
2300.03211687148 0.9999999990658817
2300.0344169047466 0.9999999989607925
2300.0367169403135 0.9999999988516236
2300.0390169781804 0.9999999987385265
2300.0413170183474 0.9999999986216487
2300.043617060814 0.9999999985011251
2300.0459171055813 0.9999999983770901
2300.0482171526482 0.9999999982496621
2300.0505172020153 0.9999999981189629
2300.0528172536824 0.9999999979851053
2300.0551173076497 0.9999999978481934
2300.057417363917 0.9999999977083305
2300.059717422484 0.9999999975656129
2300.0620174833516 0.9999999974201336
2300.0643175465193 0.9999999972719782
2300.0666176119867 0.9999999971212298
2300.068917679754 0.9999999969679718
2300.0712177498217 0.9999999968122747
2300.0735178221894 0.9999999966542155
2300.075817896857 0.9999999964938585
2300.078117973825 0.9999999963312723
2300.080418053093 0.9999999961665179
2300.0827181346613 0.9999999959996567
2300.0850182185295 0.9999999958307421
2300.0873183046974 0.9999999956598292
2300.0896183931654 0.9999999954869724
2300.091918483934 0.9999999953122173
2300.0942185770023 0.9999999951356117
2300.096518672371 0.9999999949572009
2300.09881877004 0.9999999947770264
2300.1011188700086 0.9999999945951278
2300.1034189722773 0.9999999944115442
2300.105719076846 0.9999999942263129
2300.108019183715 0.9999999940394677
2300.110319292884 0.9999999938510417
2300.1126194043536 0.9999999936610672
2300.114919518123 0.9999999934695715
2300.1172196341927 0.9999999932765848
2300.119519752562 0.9999999930821322
2300.121819873232 0.9999999928862412
2300.124119996202 0.9999999926889326
2300.126420121472 0.9999999924902316
2300.128720249042 0.9999999922901578
2300.131020378912 0.9999999920887309
2300.1333205110823 0.9999999918859718
2300.135620645553 0.9999999916818941
2300.1379207823234 0.9999999914765179
2300.140220921394 0.9999999912698568
2300.142521062765 0.9999999910619234
2300.144821206436 0.9999999908527328
2300.1471213524073 0.9999999906422957
2300.1494215006787 0.9999999904306239
2300.15172165125 0.9999999902177269
2300.154021804122 0.9999999900036135
2300.1563219592936 0.9999999897882921
2300.158622116766 0.9999999895717676
2300.160922276538 0.9999999893540488
2300.1632224386103 0.9999999891351398
2300.1655226029825 0.9999999889150422
2300.1678227696552 0.999999988693763
2300.1701229386276 0.9999999884713026
2300.1724231099006 0.9999999882476619
2300.174723283474 0.9999999880228423
2300.1770234593473 0.9999999877968428
2300.1793236375206 0.9999999875696619
2300.1816238179945 0.9999999873412978
2300.183924000768 0.9999999871117481
2300.186224185842 0.9999999868810063
2300.1885243732163 0.9999999866490697
2300.1908245628906 0.9999999864159314
2300.1931247548655 0.9999999861815839
2300.19542494914 0.9999999859460199
2300.197725145715 0.9999999857092308
2300.2000253445904 0.9999999854712069
2300.2023255457657 0.9999999852319369
2300.204625749241 0.99999998499141
2300.2069259550167 0.9999999847496115
2300.209226163093 0.9999999845065297
2300.211526373469 0.9999999842621489
2300.2138265861454 0.9999999840164535
2300.216126801122 0.9999999837694256
2300.218427018399 0.9999999835210475
2300.220727237976 0.9999999832713011
2300.2230274598533 0.9999999830201629
2300.2253276840306 0.9999999827676135
2300.2276279105085 0.999999982513629
2300.2299281392866 0.9999999822581855
2300.2322283703647 0.9999999820012566
2300.234528603743 0.9999999817428156
2300.236828839422 0.9999999814828339
2300.239129077401 0.9999999812212801
2300.24142931768 0.9999999809581263
2300.243729560259 0.9999999806933353
2300.2460298051387 0.9999999804268738
2300.2483300523186 0.999999980158706
2300.2506303017985 0.9999999798887924
2300.252930553579 0.9999999796170931
2300.2552308076597 0.9999999793435662
2300.2575310640404 0.9999999790681663
2300.2598313227218 0.9999999787908491
2300.2621315837027 0.9999999785115644
2300.2644318469847 0.9999999782302621
2300.2667321125664 0.9999999779468881
2300.2690323804486 0.9999999776613882
2300.271332650631 0.999999977373703
2300.273632923114 0.9999999770837712
2300.275933197897 0.9999999767915301
2300.27823347498 0.9999999764969112
2300.2805337543637 0.9999999761998462
2300.2828340360475 0.9999999759002582
2300.2851343200314 0.9999999755980747
2300.287434606316 0.9999999752932122
2300.2897348949004 0.9999999749855867
2300.2920351857856 0.9999999746751108
2300.294335478971 0.99999997436169
2300.2966357744563 0.999999974045228
2300.298936072242 0.9999999737256203
2300.3012363723283 0.9999999734027667
2300.303536674715 0.9999999730765476
2300.3058369794016 0.9999999727468493
2300.3081372863885 0.9999999724135469
2300.310437595676 0.9999999720765111
2300.3127379072635 0.9999999717356052
2300.3150382211516 0.9999999713906859
2300.3173385373398 0.9999999710416039
2300.319638855828 0.999999970688197
2300.321939176617 0.9999999703303029
2300.3242394997064 0.999999969967744
2300.326539825096 0.9999999696003363
2300.328840152786 0.9999999692278839
2300.3311404827764 0.9999999688501823
2300.3334408150668 0.9999999684670169
2300.3357411496577 0.9999999680781592
2300.3380414865487 0.9999999676833684
2300.3403418257403 0.9999999672823904
2300.3426421672325 0.9999999668749553
2300.344942511025 0.9999999664607833
2300.347242857117 0.9999999660395668
2300.34954320551 0.999999965610996
2300.351843556203 0.9999999651747334
2300.3541439091973 0.9999999647304173
2300.356444264491 0.9999999642776771
2300.3587446220854 0.9999999638161093
2300.36104498198 0.9999999633452823
2300.3633453441753 0.9999999628647573
2300.365645708671 0.9999999623740438
2300.3679460754665 0.9999999618726345
2300.370246444563 0.9999999613599829
2300.372546815959 0.9999999608355135
2300.374847189656 0.9999999602986074
2300.377147565653 0.9999999597486051
2300.379447943951 0.9999999591847996
2300.381748324549 0.9999999586064428
2300.3840487074476 0.9999999580127301
2300.3863490926465 0.9999999574027958
2300.388649480146 0.9999999567757178
2300.3909498699454 0.9999999561305091
2300.393250262045 0.9999999554661019
2300.3955506564457 0.9999999547813564
2300.397851053146 0.9999999540750422
2300.4001514521474 0.9999999533458303
2300.402451853449 0.9999999525923041
2300.4047522570504 0.9999999518129126
2300.407052662953 0.999999951005996
2300.4093530711557 0.9999999501697462
2300.4116534816585 0.9999999493022141
2300.4139538944623 0.9999999484012893
2300.416254309566 0.999999947464669
2300.4185547269703 0.9999999464898479
2300.420855146675 0.9999999454741141
2300.4231555686806 0.9999999444144921
2300.4254559929864 0.999999943307743
2300.4277564195922 0.999999942150311
2300.430056848499 0.9999999409383169
2300.432357279706 0.9999999396674852
2300.4346577132137 0.9999999383331374
2300.4369581490214 0.9999999369301079
2300.4392585871296 0.9999999354528194
2300.441559027538 0.999999933894841
2300.4438594702474 0.999999932249198
2300.446159915257 0.9999999305081171
2300.448460362567 0.9999999286629913
2300.4507608121776 0.9999999267041819
2300.453061264089 0.9999999246209484
2300.4553617183 0.999999922401228
2300.4576621748115 0.999999920031455
2300.459962633624 0.9999999174963675
2300.462263094737 0.9999999147771871
2300.46456355815 0.9999999118570816
2300.4668640238638 0.9999999087125053
2300.469164491878 0.9999999053179925
2300.4714649621924 0.9999999016438497
2300.473765434808 0.9999998976573459
2300.4760659097233 0.999999893318175
2300.4783663869393 0.9999998885824686
2300.480666866456 0.999999883394716
2300.4829673482727 0.999999877685807
2300.4852678323905 0.9999998713598074
2300.4875683188084 0.999999864279366
2300.489868807527 0.999999856284768
2300.492169298546 0.9999998472816182
2300.4944697918654 0.999999837318706
2300.496770287485 0.9999998264606583
2300.499070785406 0.999999814519629
2300.5013712856266 0.9999998010061616
2300.503671788148 0.9999997853570741
2300.50597229297 0.9999997670833354
2300.5082728000925 0.9999997456817336
2300.5105733095156 0.9999997204829913
2300.512873821239 0.9999996905456858
2300.515174335263 0.9999996545520652
2300.5174748515874 0.9999996106624885
2300.5197753702128 0.9999995562133328
2300.5220758911382 0.9999994872117574
2300.5243764143643 0.9999993972250977
2300.526676939891 0.9999992744923315
2300.5289774677176 0.9999990926326817
2300.5312779978453 0.9999987819955315
2300.5335785302736 0.9999981787377382
2300.5358790650025 0.9999970236057854
2300.5381796020315 0.9999950279882516
2300.5404801413615 0.9999921212544427
2300.5427806829916 0.9999889846361127
2300.545081226923 0.999987643511339
2300.547381773154 0.9999893224651283
2300.5496823216863 0.9999925191782384
2300.5519828725187 0.9999953245265677
2300.5542834256516 0.9999972048941254
2300.556583981085 0.9999982752047811
2300.5588845388197 0.9999988292639969
2300.5611850988544 0.9999991170339564
2300.5634856611896 0.9999992886959232
2300.5657862258254 0.9999994059624506
2300.5680867927617 0.9999994924261314
2300.570387361999 0.99999955890226
2300.5726879335366 0.9999996114157881
2300.5749885073747 0.9999996537640257
2300.5772890835133 0.9999996884748819
2300.5795896619525 0.9999997173275967
2300.5818902426927 0.9999997415941011
2300.584190825733 0.9999997622104686
2300.586491411074 0.9999997798802035
2300.5887919987154 0.9999997951415027
2300.5910925886574 0.9999998084125419
2300.5933931809004 0.9999998200229209
2300.5956937754436 0.9999998302357684
2300.5979943722878 0.999999839263457
2300.6002949714325 0.9999998472790539
2300.6025955728774 0.9999998544249554
2300.6048961766232 0.9999998608193765
2300.6071967826697 0.9999998665606372
2300.6094973910167 0.9999998717318289
2300.6117980016643 0.9999998764030549
2300.6140986146124 0.999999880633994
2300.616399229861 0.9999998844763514
2300.618699847411 0.9999998879729711
2300.6210004672607 0.9999998911613946
2300.6233010894116 0.9999998940751086
2300.625601713863 0.9999998967425905
2300.6279023406146 0.9999998991888219
2300.630202969667 0.9999999014369348
2300.6325036010203 0.9999999035034317
2300.6348042346744 0.9999999054067531
2300.6371048706287 0.9999999071619528
2300.639405508884 0.9999999087823447
2300.6417061494394 0.9999999102798132
2300.644006792296 0.999999911664951
2300.646307437453 0.9999999129472404
2300.6486080849104 0.99999991413517
2300.650908734669 0.9999999152364076
2300.6532093867277 0.9999999162578321
2300.6555100410874 0.9999999172056634
2300.6578106977477 0.9999999180855237
2300.660111356709 0.9999999189025226
2300.6624120179704 0.9999999196612843
2300.664712681533 0.9999999203660244
2300.667013347396 0.9999999210205824
2300.6693140155594 0.9999999216284702
2300.6716146860235 0.9999999221928815
2300.6739153587887 0.9999999227167602
2300.676216033854 0.9999999232027883
2300.6785167112203 0.9999999236534456
2300.680817390887 0.999999924071003
2300.6831180728545 0.9999999244575584
2300.6854187571225 0.9999999248150419
2300.6877194436915 0.9999999251452255
2300.6900201325616 0.9999999254497683
2300.6923208237317 0.9999999257301938
2300.6946215172034 0.9999999259879118
2300.696922212975 0.999999926224235
2300.6992229110474 0.9999999264403848
2300.7015236114207 0.9999999266374825
2300.7038243140946 0.9999999268165929
2300.706125019069 0.999999926978691
2300.7084257263446 0.9999999271246928
2300.7107264359206 0.9999999272554502
2300.713027147797 0.9999999273717596
2300.7153278619744 0.9999999274743732
2300.7176285784526 0.999999927563981
2300.719929297232 0.9999999276412396
2300.722230018311 0.9999999277067575
2300.7245307416915 0.9999999277611157
2300.7268314673724 0.9999999278048524
2300.729132195354 0.9999999278384674
2300.7314329256365 0.999999927862439
2300.73373365822 0.9999999278772234
2300.7360343931036 0.9999999278832327
2300.7383351302883 0.9999999278808661
2300.740635869774 0.9999999278704998
2300.7429366115603 0.999999927852487
2300.745237355647 0.9999999278271612
2300.7475381020345 0.999999927794837
2300.749838850723 0.9999999277558125
2300.7521396017123 0.9999999277103668
2300.7544403550023 0.9999999276587698
2300.756741110593 0.9999999276012724
2300.759041868484 0.9999999275381115
2300.761342628676 0.9999999274695157
2300.7636433911694 0.9999999273956964
2300.765944155963 0.999999927316861
2300.7682449230574 0.9999999272331983
2300.7705456924527 0.9999999271448946
2300.7728464641486 0.9999999270521243
2300.7751472381456 0.9999999269550495
2300.777448014443 0.9999999268538303
2300.7797487930416 0.9999999267486165
2300.7820495739406 0.9999999266395496
2300.7843503571403 0.9999999265267624
2300.786651142641 0.999999926410387
2300.788951930442 0.9999999262905471
2300.7912527205444 0.9999999261673554
2300.7935535129477 0.9999999260409264
2300.7958543076516 0.9999999259113677
2300.7981551046564 0.9999999257787764
2300.8004559039614 0.9999999256432518
2300.802756705568 0.9999999255048867
2300.805057509475 0.9999999253637685
2300.8073583156824 0.9999999252199798
2300.809659124191 0.9999999250736011
2300.8119599350007 0.9999999249247118
2300.814260748111 0.9999999247733813
2300.816561563522 0.9999999246196811
2300.818862381234 0.9999999244636784
2300.8211632012467 0.9999999243054345
2300.82346402356 0.9999999241450137
2300.8257648481745 0.9999999239824716
2300.8280656750894 0.9999999238178652
2300.8303665043054 0.9999999236512468
2300.8326673358224 0.9999999234826681
2300.83496816964 0.9999999233121759
2300.8372690057586 0.9999999231398168
2300.8395698441777 0.9999999229656352
2300.841870684898 0.9999999227896758
2300.844171527919 0.9999999226119753
2300.846472373241 0.9999999224325733
2300.8487732208637 0.9999999222515074
2300.8510740707875 0.9999999220688125
2300.853374923012 0.9999999218845208
2300.855675777537 0.9999999216986657
2300.8579766343632 0.9999999215112768
2300.8602774934902 0.9999999213223828
2300.862578354918 0.9999999211320115
2300.8648792186464 0.9999999209401892
2300.867180084676 0.9999999207469401
2300.8694809530066 0.9999999205522875
2300.871781823638 0.9999999203562552
2300.87408269657 0.9999999201588623
2300.8763835718028 0.9999999199601307
2300.878684449337 0.9999999197600781
2300.880985329172 0.9999999195587221
2300.883286211307 0.9999999193560809
2300.885587095744 0.9999999191521692
2300.887887982482 0.9999999189470012
2300.8901888715195 0.9999999187405918
2300.892489762859 0.9999999185329526
2300.8947906564986 0.9999999183240952
2300.89709155244 0.999999918114032
2300.899392450682 0.9999999179027722
2300.901693351225 0.9999999176903246
2300.9039942540685 0.9999999174766979
2300.9062951592127 0.999999917261899
2300.9085960666584 0.9999999170459359
2300.910896976405 0.9999999168288127
2300.9131978884525 0.9999999166105336
2300.915498802801 0.999999916391105
2300.9177997194497 0.9999999161705293
2300.9201006383996 0.9999999159488094
2300.9224015596506 0.9999999157259443
2300.9247024832025 0.999999915501938
2300.9270034090555 0.9999999152767892
2300.9293043372095 0.9999999150504979
2300.931605267664 0.9999999148230606
2300.9339062004196 0.9999999145944788
2300.9362071354763 0.9999999143647467
2300.938508072834 0.9999999141338599
2300.9408090124925 0.9999999139018161
2300.9431099544518 0.9999999136686081
2300.9454108987125 0.9999999134342297
2300.9477118452737 0.9999999131986741
2300.950012794136 0.9999999129619345
2300.9523137452993 0.9999999127240011
2300.9546146987636 0.999999912484864
2300.9569156545285 0.9999999122445126
2300.959216612595 0.9999999120029351
2300.961517572962 0.9999999117601204
2300.96381853563 0.9999999115160555
2300.966119500599 0.9999999112707251
2300.968420467869 0.999999911024115
2300.97072143744 0.999999910776209
2300.9730224093114 0.9999999105269883
2300.975323383484 0.9999999102764375
2300.977624359958 0.9999999100245365
2300.9799253387328 0.9999999097712653
2300.9822263198084 0.999999909516602
2300.984527303185 0.9999999092605232
2300.986828288863 0.9999999090030075
2300.9891292768416 0.9999999087440291
2300.991430267122 0.9999999084835619
2300.993731259702 0.9999999082215776
2300.9960322545835 0.9999999079580474
2300.9983332517663 0.9999999076929432
2301.00063425125 0.9999999074262328
2301.0029352530346 0.9999999071578811
2301.0052362571205 0.9999999068878563
2301.007537263507 0.9999999066161205
2301.009838272195 0.9999999063426361
2301.0121392831834 0.9999999060673634
2301.0144402964734 0.9999999057902621
2301.016741312064 0.9999999055112883
2301.0190423299555 0.9999999052303961
2301.0213433501485 0.9999999049475393
2301.023644372642 0.9999999046626682
2301.0259453974368 0.9999999043757299
2301.028246424533 0.9999999040866746
2301.0305474539296 0.9999999037954436
2301.0328484856273 0.9999999035019755
2301.0351495196264 0.9999999032062152
2301.0374505559266 0.9999999029080925
2301.0397515945274 0.9999999026075443
2301.0420526354296 0.999999902304498
2301.0443536786324 0.9999999019988824
2301.0466547241367 0.999999901690623
2301.048955771942 0.9999999013796342
2301.0512568220483 0.9999999010658368
2301.0535578744552 0.9999999007491448
2301.0558589291636 0.9999999004294641
2301.058159986173 0.9999999001066968
2301.0604610454834 0.9999998997807511
2301.062762107095 0.9999998994515145
2301.0650631710073 0.9999998991188798
2301.067364237221 0.9999998987827334
2301.0696653057357 0.999999898442956
2301.0719663765517 0.9999998980994166
2301.0742674496682 0.9999998977519899
2301.0765685250863 0.9999998974005324
2301.0788696028053 0.9999998970449026
2301.0811706828254 0.9999998966849459
2301.0834717651464 0.9999998963205061
2301.085772849769 0.9999998959514113
2301.088073936692 0.9999998955774845
2301.0903750259167 0.9999998951985467
2301.092676117442 0.9999998948143948
2301.0949772112685 0.9999998944248302
2301.097278307396 0.9999998940296374
2301.0995794058254 0.999999893628585
2301.101880506555 0.9999998932214381
2301.104181609586 0.9999998928079438
2301.106482714918 0.9999998923878349
2301.1087838225512 0.9999998919608365
2301.1110849324855 0.9999998915266495
2301.1133860447208 0.9999998910849599
2301.1156871592575 0.9999998906354425
2301.117988276095 0.9999998901777482
2301.1202893952336 0.9999998897115059
2301.1225905166734 0.9999998892363284
2301.1248916404143 0.9999998887518037
2301.1271927664566 0.9999998882574904
2301.1294938948 0.9999998877529289
2301.131795025444 0.9999998872376226
2301.1340961583896 0.9999998867110579
2301.136397293636 0.9999998861726725
2301.138698431184 0.9999998856218778
2301.140999571033 0.9999998850580458
2301.1433007131827 0.999999884480509
2301.145601857634 0.9999998838885612
2301.1479030043865 0.9999998832814277
2301.15020415344 0.999999882658318
2301.1525053047944 0.9999998820445428
2301.1548064584504 0.9999998814203963
2301.1571076144073 0.9999998807845253
2301.1594087726653 0.9999998801355664
2301.1617099332248 0.9999998794720737
2301.1640110960852 0.9999998787925638
2301.1663122612467 0.9999998780954571
2301.1686134287093 0.999999877379097
2301.1709145984732 0.999999876641733
2301.1732157705383 0.9999998758815173
2301.1755169449048 0.9999998750964688
2301.1778181215723 0.9999998742845035
2301.180119300541 0.9999998734433677
2301.182420481811 0.99999987257066
2301.1847216653814 0.9999998716638132
2301.187022851254 0.9999998707200404
2301.189324039427 0.9999998697363593
2301.1916252299015 0.9999998687095364
2301.1939264226776 0.9999998676360683
2301.1962276177546 0.9999998665121491
2301.1985288151327 0.99999986533365
2301.200830014812 0.9999998640960593
2301.2031312167924 0.9999998627944638
2301.205432421074 0.9999998614234584
2301.207733627657 0.9999998599771404
2301.210034836541 0.9999998584490032
2301.2123360477262 0.9999998568318844
2301.214637261213 0.9999998551178887
2301.2169384770004 0.9999998532982421
2301.2192396950895 0.9999998513632355
2301.2215409154796 0.999999849302066
