Atmospheric Species: CO2
Metallicity: 1
C/O_Ratio: 0.5
Wavelength[nm] Flux_variation
1699.999720594985 1.0
1700.0014205955558 0.9999999993477436
1700.003120597826 0.9999999985928614
1700.0048206017968 0.999999997738736
1700.0065206074676 0.9999999969247103
1700.0082206148381 0.9999999963270211
1700.0099206239088 0.9999999959590894
1700.0116206346793 0.9999999956622414
1700.0133206471498 0.9999999952917482
1700.0150206613202 0.9999999948149499
1700.016720677191 0.9999999942664285
1700.0184206947615 0.9999999936901075
1700.020120714032 0.9999999931117121
1700.0218207350024 0.9999999925259722
1700.0235207576732 0.9999999919096215
1700.025220782044 0.9999999912589073
1700.0269208081147 0.9999999906116909
1700.0286208358855 0.9999999900102898
1700.0303208653559 0.9999999894353763
1700.032020896527 0.9999999888242167
1700.0337209293978 0.9999999881532413
1700.0354209639686 0.999999987413243
1700.0371210002395 0.9999999865247454
1700.0388210382105 0.9999999854793946
1700.0405210778813 0.9999999845675457
1700.0422211192524 0.9999999841080562
1700.0439211623234 0.9999999839766596
1700.0456212070944 0.9999999838024866
1700.0473212535655 0.9999999834253546
1700.0490213017365 0.9999999829234759
1700.050721351608 0.9999999824148146
1700.0524214031793 0.9999999819259813
1700.0541214564507 0.9999999814168092
1700.0558215114222 0.9999999808706787
1700.0575215680938 0.9999999803041392
1700.0592216264656 0.9999999797264115
1700.0609216865369 0.9999999791166672
1700.0626217483084 0.9999999784217906
1700.0643218117798 0.9999999776043061
1700.0660218769517 0.9999999767554137
1700.0677219438237 0.9999999760891499
1700.0694220123955 0.9999999756788396
1700.0711220826677 0.9999999753352518
1700.0728221546399 0.9999999748474114
1700.0745222283117 0.9999999741636184
1700.0762223036838 0.9999999733874235
1700.0779223807563 0.9999999727097449
1700.0796224595285 0.9999999722224112
1700.081322540001 0.9999999718264815
1700.0830226221735 0.999999971391246
1700.084722706046 0.9999999708771962
1700.0864227916188 0.9999999703263965
1700.0881228788917 0.9999999698012283
1700.0898229678646 0.9999999693071345
1700.0915230585374 0.9999999688021179
1700.0932231509105 0.999999968264202
1700.0949232449836 0.9999999677025917
1700.0966233407569 0.999999967130031
1700.0983234382302 0.999999966548867
1700.1000235374036 0.999999965953259
1700.101723638277 0.999999965340621
1700.1034237408508 0.9999999647247133
1700.1051238451244 0.9999999641275984
1700.106823951098 0.9999999635528679
1700.108524058772 0.9999999629851386
1700.1102241681463 0.9999999624076078
1700.1119242792201 0.9999999617976725
1700.1136243919946 0.9999999611322639
1700.1153245064686 0.9999999604329929
1700.1170246226434 0.9999999597854706
1700.118724740518 0.9999999592529227
1700.1204248600927 0.9999999587913188
1700.1221249813675 0.9999999583150547
1700.1238251043426 0.9999999577877172
1700.1255252290177 0.9999999572107997
1700.1272253553927 0.9999999565990731
1700.1289254834683 0.9999999559891918
1700.1306256132436 0.9999999554188428
1700.1323257447189 0.9999999548833068
1700.134025877895 0.9999999543502875
1700.1357260127709 0.9999999538017175
1700.137426149347 0.9999999532366591
1700.1391262876232 0.9999999526604435
1700.1408264275992 0.9999999520793331
1700.1425265692758 0.9999999514921796
1700.1442267126522 0.9999999508835712
1700.1459268577291 0.9999999502262814
1700.147627004506 0.9999999495081656
1700.149327152983 0.9999999487799305
1700.1510273031602 0.9999999481351892
1700.1527274550374 0.9999999476051413
1700.154427608615 0.999999947134138
1700.1561277638923 0.9999999466529556
1700.1578279208704 0.9999999461160187
1700.1595280795482 0.9999999455071606
1700.1612282399262 0.9999999448572525
1700.1629284020044 0.9999999442387765
1700.1646285657832 0.9999999436938245
1700.1663287312617 0.9999999431796235
1700.1680288984403 0.9999999426217022
1700.169729067319 0.9999999419930372
1700.171429237898 0.9999999413336962
1700.1731294101774 0.999999940694504
1700.174829584157 0.9999999400669354
1700.1765297598363 0.9999999394327276
1700.1782299372162 0.9999999388432711
1700.1799301162962 0.9999999383500685
1700.1816302970763 0.9999999379141109
1700.1833304795568 0.9999999374570044
1700.1850306637373 0.9999999369467285
1700.186730849618 0.9999999363961489
1700.1884310371988 0.99999993582188
1700.1901312264797 0.9999999352313906
1700.1918314174611 0.9999999346307229
1700.1935316101426 0.9999999340288641
1700.1952318045244 0.999999933434342
1700.196932000606 0.9999999328460638
1700.1986321983882 0.9999999322483594
1700.2003323978704 0.999999931609305
1700.202032599053 0.9999999308586834
1700.2037328019355 0.9999999298753152
1700.2054330065184 0.999999928626807
1700.2071332128014 0.9999999274368754
1700.208833420785 0.9999999268079938
1700.210533630468 0.9999999267572464
1700.2122338418515 0.9999999268117151
1700.2139340549356 0.9999999266470755
1700.2156342697199 0.9999999262725271
1700.2173344862042 0.999999925789776
1700.2190347043886 0.9999999252482966
1700.2207349242735 0.9999999246706668
1700.2224351458585 0.9999999240901128
1700.2241353691436 0.99999992352309
1700.2258355941292 0.9999999229422201
1700.2275358208146 0.9999999223097464
1700.2292360492004 0.9999999216288433
1700.2309362792867 0.9999999209561851
1700.232636511073 0.9999999203321506
1700.2343367445594 0.9999999196850211
1700.236036979746 0.9999999189038071
1700.2377372166331 0.9999999180310972
1700.2394374552205 0.9999999172774954
1700.241137695508 0.9999999167525627
1700.2428379374958 0.9999999163582877
1700.2445381811838 0.9999999160069524
1700.246238426572 0.9999999156576312
1700.2479386736607 0.9999999152343813
1700.2496389224493 0.9999999147045091
1700.2513391729383 0.9999999141318104
1700.2530394251273 0.9999999135915775
1700.2547396790171 0.9999999130831699
1700.2564399346068 0.9999999125563918
1700.2581401918967 0.9999999119745974
1700.2598404508867 0.9999999113276496
1700.2615407115777 0.9999999106403792
1700.263240973968 0.9999999099852198
1700.2649412380592 0.9999999094220573
1700.2666415038505 0.9999999089133287
1700.2683417713422 0.9999999083654841
1700.2700420405338 0.9999999077262011
1700.2717423114264 0.9999999069918812
1700.2734425840185 0.9999999061771649
1700.275142858311 0.9999999053194334
1700.276843134304 0.9999999044953933
1700.2785434119971 0.9999999038264717
1700.2802436913905 0.99999990340345
1700.2819439724844 0.9999999031473854
1700.2836442552784 0.9999999028805507
1700.2853445397727 0.9999999025117705
1700.2870448259675 0.9999999020429852
1700.2887451138624 0.9999999015035158
1700.2904454034576 0.9999999009325335
1700.2921456947531 0.9999999003583847
1700.2938459877491 0.9999998997718355
1700.2955462824452 0.9999998991557452
1700.2972465788416 0.9999998985383005
1700.2989468769385 0.9999998979677224
1700.3006471767358 0.9999998974414152
1700.3023474782328 0.9999998969224433
1700.3040477814307 0.9999998963956103
1700.3057480863285 0.9999998958594613
1700.3074483929267 0.9999998953073275
1700.3091487012252 0.9999998947345959
1700.3108490112243 0.9999998941452625
1700.3125493229234 0.9999998935523078
1700.3142496363225 0.9999998929669154
1700.3159499514227 0.9999998923807796
1700.3176502682227 0.9999998917784797
1700.3193505867227 0.9999998911684792
1700.3210509069238 0.9999998905757287
1700.3227512288247 0.9999998899982447
1700.324451552426 0.9999998894001133
1700.3261518777274 0.9999998887647888
1700.3278522047294 0.9999998881347882
1700.3295525334318 0.9999998875614119
1700.3312528638346 0.9999998870236906
1700.3329531959375 0.9999998864578438
1700.334653529741 0.9999998858535651
1700.3363538652445 0.9999998852651844
1700.3380542024483 0.9999998847261639
1700.3397545413527 0.9999998842018282
1700.3414548819576 0.9999998836480628
1700.3431552242623 0.999999883066295
1700.3448555682678 0.9999998824846719
1700.3465559139734 0.9999998819137355
1700.3482562613794 0.9999998813370656
1700.3499566104858 0.9999998807425806
1700.3516569612923 0.9999998801446904
1700.3533573137995 0.9999998795674383
1700.355057668007 0.9999998790134406
1700.3567580239148 0.9999998784631866
1700.358458381523 0.9999998779015032
1700.360158740831 0.9999998773272218
1700.3618591018403 0.9999998767431105
1700.3635594645496 0.9999998761487483
1700.365259828959 0.9999998755383779
1700.366960195069 0.9999998749007181
1700.3686605628795 0.9999998742277354
1700.37036093239 0.9999998735324064
1700.372061303601 0.9999998728495548
1700.3737616765122 0.9999998722050236
1700.3754620511243 0.9999998715774152
1700.3771624274364 0.99999987086799
1700.378862805449 0.9999998699255368
1700.380563185162 0.9999998687238151
1700.3822635665754 0.999999867532603
1700.383963949689 0.9999998666143235
1700.385664334503 0.9999998658035463
1700.3873647210175 0.999999864917579
1700.3890651092324 0.9999998642132124
1700.3907654991474 0.9999998639721812
1700.392465890763 0.9999998641312786
1700.3941662840791 0.9999998643720098
1700.3958666790954 0.9999998643840848
1700.3975670758123 0.9999998640983312
1700.3992674742296 0.9999998636123519
1700.400967874347 0.9999998630259032
1700.402668276165 0.9999998624031896
1700.4043686796833 0.9999998617815126
1700.4060690849024 0.9999998611864199
1700.4077694918215 0.9999998606480849
1700.409469900441 0.999999860159676
1700.4111703107612 0.9999998596547925
1700.4128707227815 0.9999998590821626
1700.4145711365024 0.9999998584665045
1700.4162715519237 0.9999998578738479
1700.4179719690453 0.9999998573183033
1700.4196723878674 0.999999856737546
1700.4213728083898 0.9999998560849552
1700.423073230613 0.9999998554127651
1700.4247736545362 0.9999998548184723
1700.42647408016 0.999999854300268
1700.4281745074843 0.9999998537535152
1700.429874936509 0.9999998531355884
1700.431575367234 0.9999998525312636
1700.4332757996597 0.9999998520147095
1700.4349762337856 0.9999998515381495
1700.436676669612 0.9999998510188212
1700.4383771071389 0.999999850445178
1700.4400775463664 0.9999998498478923
1700.4417779872938 0.9999998492205329
1700.4434784299222 0.9999998485210851
1700.4451788742506 0.9999998477712604
1700.4468793202798 0.9999998470964263
1700.448579768009 0.9999998465850249
1700.450280217439 0.9999998461743491
1700.4519806685694 0.9999998457499807
1700.4536811214002 0.9999998452630274
1700.4553815759316 0.9999998447235827
1700.4570820321633 0.9999998441568491
1700.4587824900957 0.9999998435812687
1700.4604829497282 0.9999998430031094
1700.4621834110615 0.9999998424232451
1700.4638838740948 0.99999984184412
1700.4655843388289 0.999999841263043
1700.4672848052635 0.999999840668043
1700.4689852733984 0.9999998400458282
1700.4706857432336 0.9999998393752393
1700.4723862147698 0.9999998386174663
1700.4740866880059 0.9999998377826512
1700.475787162943 0.9999998370170712
1700.4774876395804 0.9999998364758763
1700.479188117918 0.9999998361113814
1700.4808885979564 0.9999998357560845
1700.4825890796951 0.9999998353199061
1700.4842895631343 0.9999998348087633
1700.4859900482743 0.9999998342600918
1700.4876905351143 0.9999998336993681
1700.489391023655 0.9999998331299991
1700.4910915138962 0.9999998325490324
1700.492792005838 0.9999998319603205
1700.4944924994802 0.9999998313712644
1700.4961929948229 0.9999998307823077
1700.4978934918663 0.9999998301848922
1700.4995939906096 0.9999998295656048
1700.5012944910538 0.9999998288948483
1700.5029949931984 0.9999998280961494
1700.5046954970437 0.9999998270616175
1700.5063960025893 0.9999998258350595
1700.5080965098355 0.9999998247886268
1700.5097970187821 0.9999998242835434
1700.5114975294293 0.9999998241848251
1700.5131980417773 0.9999998241139005
1700.5148985558253 0.9999998238921498
1700.516599071574 0.9999998235193243
1700.5182995890234 0.9999998230422684
1700.5200001081735 0.9999998225044061
1700.5217006290236 0.9999998219228552
1700.5234011515745 0.9999998212916146
1700.5251016758257 0.999999820580225
1700.5268022017776 0.9999998197583263
1700.52850272943 0.9999998189142904
1700.530203258783 0.9999998182730534
1700.5319037898366 0.9999998179150607
1700.5336043225902 0.9999998176470298
1700.5353048570453 0.9999998172823161
1700.5370053932002 0.9999998168057873
1700.5387059310556 0.999999816270092
1700.540406470612 0.9999998157093228
1700.5421070118687 0.9999998151373184
1700.543807554826 0.9999998145606784
1700.545508099484 0.9999998139825869
1700.547208645842 0.9999998134033491
1700.5489091939007 0.999999812822989
1700.55060974366 0.9999998122434232
1700.55231029512 0.9999998116653072
1700.5540108482805 0.9999998110847831
1700.5557114031415 0.9999998104945711
1700.5574119597031 0.9999998098836763
1700.5591125179653 0.9999998092419455
1700.560813077928 0.9999998085852884
1700.5625136395913 0.9999998079675477
1700.5642142029553 0.9999998074214024
1700.5659147680199 0.9999998069088055
1700.567615334785 0.9999998063744394
1700.5693159032505 0.9999998058006783
1700.5710164734166 0.9999998051927921
1700.5727170452838 0.9999998045539097
1700.5744176188507 0.9999998038904604
1700.5761181941186 0.9999998032339795
1700.5778187710873 0.9999998026129973
1700.579519349756 0.999999801994195
1700.5812199301258 0.9999998013370666
1700.5829205121959 0.9999998006933316
1700.5846210959667 0.9999998001438201
1700.586321681438 0.9999997996789588
1700.5880222686098 0.9999997992271572
1700.5897228574827 0.9999997987401656
1700.5914234480554 0.9999997982104593
1700.593124040329 0.9999997976531443
1700.5948246343032 0.9999997970869478
1700.596525229978 0.9999997965202013
1700.5982258273534 0.9999997959506376
1700.5999264264299 0.9999997953746039
1700.6016270272064 0.9999997947916779
1700.6033276296837 0.9999997942032391
1700.6050282338615 0.9999997936119472
1700.60672883974 0.9999997930213113
1700.6084294473192 0.9999997924307519
1700.6101300565986 0.9999997918316782
1700.611830667579 0.9999997912122616
1700.6135312802598 0.9999997905725363
1700.615231894641 0.9999997899398625
1700.6169325107235 0.999999789346116
1700.618633128506 0.9999997887844869
1700.6203337479897 0.9999997882275079
1700.6220343691734 0.9999997876707026
1700.6237349920582 0.9999997871202619
1700.6254356166435 0.9999997865699793
1700.6271362429293 0.9999997860127892
1700.6288368709156 0.9999997854475345
1700.6305375006027 0.9999997848725185
1700.63223813199 0.9999997842864041
1700.633938765079 0.9999997836899055
1700.6356393998678 0.9999997830807397
1700.6373400363575 0.9999997824454816
1700.6390406745477 0.9999997817550338
1700.6407413144386 0.9999997809778088
1700.6424419560303 0.999999780132639
1700.6441425993223 0.9999997793361668
1700.6458432443155 0.9999997787147635
1700.6475438910088 0.9999997782592418
1700.6492445394028 0.9999997778623895
1700.6509451894979 0.9999997774479568
1700.6526458412934 0.9999997769930113
1700.6543464947895 0.9999997765001697
1700.656047149986 0.9999997759733592
1700.6577478068834 0.9999997754006805
1700.6594484654815 0.9999997747773496
1700.6611491257802 0.9999997741379756
1700.6628497877796 0.9999997735320079
1700.6645504514797 0.9999997729680293
1700.6662511168802 0.9999997724245787
1700.6679517839818 0.9999997718883237
1700.6696524527838 0.9999997713443617
1700.6713531232863 0.9999997707750704
1700.6730537954897 0.9999997701802025
1700.6747544693937 0.9999997695736355
1700.6764551449987 0.9999997689691168
1700.678155822304 0.9999997683709971
1700.67985650131 0.9999997677697796
1700.6815571820168 0.9999997671409661
1700.6832578644241 0.9999997664323337
1700.6849585485324 0.9999997655975676
1700.6866592343413 0.9999997647273372
1700.6883599218506 0.9999997640524122
1700.690060611061 0.9999997636558651
1700.6917613019718 0.9999997633366657
1700.693461994583 0.999999762878453
1700.6951626888956 0.9999997622689274
1700.6968633849087 0.9999997616443611
1700.6985640826222 0.9999997611160695
1700.7002647820368 0.9999997606579474
1700.7019654831518 0.9999997601876061
1700.7036661859677 0.9999997596761089
1700.7053668904841 0.9999997591393621
1700.7070675967013 0.9999997585948082
1700.7087683046193 0.9999997580440304
1700.710469014238 0.9999997574815676
1700.7121697255573 0.9999997569065413
1700.7138704385775 0.999999756321423
1700.715571153298 0.9999997557267795
1700.7172718697195 0.9999997551210791
1700.7189725878418 0.9999997545057895
1700.7206733076644 0.999999753891659
1700.7223740291881 0.9999997532898455
1700.7240747524124 0.9999997526927852
1700.7257754773375 0.9999997520769655
1700.7274762039633 0.9999997514158382
1700.72917693229 0.9999997506655006
1700.730877662317 0.9999997497212261
1700.732578394045 0.9999997484786615
1700.7342791274737 0.9999997471097508
1700.735979862603 0.9999997461058918
1700.7376805994334 0.9999997457386881
1700.7393813379642 0.9999997457782303
1700.7410820781959 0.9999997458519377
1700.7427828201282 0.999999745726676
1700.7444835637614 0.9999997453536882
1700.7461843090953 0.9999997448203756
1700.74788505613 0.9999997442390125
1700.749585804865 0.99999974368328
1700.7512865553015 0.9999997431690487
1700.7529873074382 0.9999997426398118
1700.7546880612758 0.999999742013978
1700.7563888168143 0.9999997412734133
1700.7580895740532 0.9999997405208124
1700.7597903329931 0.9999997399116106
1700.7614910936338 0.9999997394690108
1700.7631918559753 0.9999997390533831
1700.7648926200177 0.9999997385477549
1700.7665933857602 0.9999997379710306
1700.7682941532041 0.999999737398427
1700.7699949223486 0.9999997368396403
1700.7716956931938 0.9999997362441565
1700.7733964657398 0.9999997356113726
1700.7750972399867 0.9999997350197977
1700.7767980159342 0.9999997345134503
1700.7784987935825 0.9999997340383889
1700.7801995729317 0.9999997335305054
1700.7819003539817 0.9999997329788071
1700.7836011367324 0.9999997323932739
1700.7853019211836 0.9999997317733085
1700.787002707336 0.9999997311228206
1700.7887034951889 0.999999730482885
1700.790404284743 0.999999729906027
1700.7921050759976 0.9999997293840522
1700.7938058689529 0.9999997288573497
1700.795506663609 0.9999997282898763
1700.797207459966 0.9999997276882382
1700.798908258024 0.9999997270682922
1700.8006090577826 0.9999997264329058
1700.8023098592419 0.999999725762758
1700.804010662402 0.9999997250038416
1700.805711467263 0.999999724140248
1700.8074122738249 0.9999997233311855
1700.8091130820876 0.9999997227879638
1700.810813892051 0.9999997224704799
1700.8125147037154 0.9999997221544611
1700.8142155170804 0.9999997217126644
1700.8159163321461 0.999999721165535
1700.8176171489126 0.9999997205942041
1700.8193179673801 0.9999997200545978
1700.8210187875484 0.9999997195323249
1700.8227196094176 0.999999718981629
1700.8244204329876 0.999999718380133
1700.8261212582584 0.9999997177392288
1700.82782208523 0.9999997171042188
1700.8295229139026 0.9999997165305141
1700.831223744276 0.9999997160188532
1700.83292457635 0.9999997155128185
1700.8346254101252 0.9999997149724461
1700.836326245601 0.9999997144012881
1700.8380270827777 0.9999997138177973
1700.8397279216554 0.9999997132335597
1700.8414287622338 0.9999997126510188
1700.843129604513 0.9999997120677027
1700.844830448493 0.9999997114800793
1700.846531294174 0.9999997108844119
1700.8482321415559 0.9999997102707452
1700.8499329906383 0.9999997096178285
1700.8516338414217 0.9999997095624111
1700.8533346939062 0.9999997095874851
1700.8550355480913 0.9999997097770362
1700.8567364039773 0.9999997100452286
1700.8584372615642 0.9999997101704656
1700.8601381208518 0.9999997100648761
1700.8618389818403 0.9999997098515278
1700.8635398445297 0.9999997096645891
1700.8652407089198 0.9999997095290182
1700.8669415750107 0.9999997093956802
1700.8686424428026 0.9999997091947692
1700.8703433122955 0.999999708864632
1700.872044183489 0.9999997083971484
1700.8737450563838 0.9999997079654742
1700.8754459309791 0.9999997079077522
1700.8771468072755 0.9999997082848607
1700.8788476852728 0.9999997087333241
1700.8805485649707 0.9999997090085436
1700.8822494463698 0.9999997091742746
1700.8839503294694 0.9999997092530495
1700.8856512142702 0.9999997092001237
1700.887352100772 0.9999997092065389
1700.8890529889745 0.9999997095730233
1700.8907538788778 0.9999997101297629
1700.8924547704821 0.9999997103396063
1700.8941556637872 0.9999997100766593
1700.8958565587932 0.999999709612412
1700.8975574555002 0.9999997090562489
