Atmospheric Species: NH3
Metallicity: 1
C/O_Ratio: 0.5
Wavelength[nm] Flux_variation
1399.999790129412 0.9999996400965101
1400.0011901299022 0.9999995489884188
1400.0025901317922 0.9999992545213116
1400.0039901350824 0.9999988008746947
1400.0053901397725 0.999998303955158
1400.0067901458626 0.9999979209188019
1400.0081901533526 0.9999977546216567
1400.0095901622426 0.9999977776769405
1400.0109901725325 0.9999978709360755
1400.0123901842228 0.9999979352672678
1400.013790197313 0.9999979491275387
1400.0151902118032 0.9999979287523889
1400.0165902276933 0.9999978577975219
1400.0179902449836 0.9999976537294399
1400.0193902636736 0.9999971921146884
1400.0207902837637 0.9999963807603968
1400.022190305254 0.999995246771115
1400.0235903281443 0.9999939605550638
1400.0249903524345 0.999992757090112
1400.026390378125 0.9999918351001884
1400.0277904052152 0.9999913227773539
1400.0291904337057 0.9999912568471994
1400.0305904635961 0.9999915154318498
1400.0319904948865 0.9999918208864806
1400.033390527577 0.9999918837815541
1400.0347905616675 0.9999915264131122
1400.036190597158 0.9999906323849233
1400.0375906340487 0.9999889690367597
1400.0389906723392 0.9999860082479091
1400.0403907120299 0.999980837976907
1400.0417907531203 0.9999723196301268
1400.043190795611 0.9999598131893783
1400.044590839502 0.9999444816876097
1400.0459908847927 0.9999299143752651
1400.0473909314835 0.9999204987002489
1400.0487909795743 0.9999186173036774
1400.0501910290652 0.9999234628507072
1400.0515910799563 0.9999324496917439
1400.0529911322474 0.9999433760929953
1400.0543911859386 0.9999549273894293
1400.0557912410297 0.9999657881648775
1400.0571912975208 0.9999745049335063
1400.058591355412 0.9999803165656593
1400.0599914147035 0.9999835841144993
1400.0613914753947 0.9999853624616218
1400.0627915374862 0.9999867224443929
1400.064191600978 0.9999883053408078
1400.0655916658693 0.9999902152113965
1400.0669917321611 0.9999921993099197
1400.0683917998526 0.9999939476679436
1400.0697918689445 0.9999952933521702
1400.0711919394364 0.99999621361292
1400.0725920113282 0.9999967231643174
1400.0739920846202 0.9999967987381645
1400.0753921593123 0.9999963925916621
1400.0767922354044 0.9999955182490244
1400.0781923128966 0.999994358459475
1400.079592391789 0.9999933023411981
1400.080992472081 0.999992811746277
1400.0823925537738 0.9999931471439665
1400.0837926368663 0.9999941760878963
1400.085192721359 0.9999954649526206
1400.0865928072517 0.9999965782180724
1400.0879928945444 0.9999973144839129
1400.0893929832373 0.9999977224324913
1400.0907930733304 0.9999979632193615
1400.0921931648231 0.9999981592384832
1400.0935932577163 0.9999983179702525
1400.0949933520096 0.9999983472122359
1400.096393447703 0.9999981380429775
1400.0977935447963 0.9999976625786416
1400.09919364329 0.9999970087857724
1400.1005937431835 0.9999963140656343
1400.1019938444774 0.9999956940193991
1400.1033939471713 0.9999952674878706
1400.1047940512653 0.9999951756861238
1400.1061941567593 0.9999954791549305
1400.1075942636535 0.9999960618402541
1400.1089943719478 0.9999967006104332
1400.110394481642 0.9999972182773564
1400.1117945927365 0.9999975659446287
1400.1131947052309 0.9999977918969215
1400.1145948191256 0.9999979469617608
1400.1159949344203 0.9999980072549635
1400.1173950511154 0.9999978765699606
1400.1187951692102 0.9999974678887878
1400.1201952887054 0.9999968038180401
1400.1215954096008 0.9999960471058604
1400.122995531896 0.9999954229280803
1400.1243956555918 0.9999951052537486
1400.1257957806874 0.9999951486201242
1400.1271959071832 0.9999954543359133
1400.1285960350792 0.9999957725651007
1400.1299961643751 0.9999957989269634
1400.1313962950712 0.9999953339528633
1400.1327964271677 0.99999439017888
1400.1341965606641 0.9999931894996176
1400.1355966955607 0.9999920881638019
1400.1369968318575 0.9999914522887526
1400.1383969695542 0.9999914275622785
1400.1397971086512 0.9999917116518319
1400.1411972491485 0.9999917054757558
1400.1425973910457 0.9999910932649856
1400.1439975343433 0.9999902316254832
1400.1453976790406 0.9999898357108067
1400.1467978251383 0.9999903374500374
1400.1481979726364 0.9999916295442232
1400.1495981215342 0.9999932725602392
1400.1509982718323 0.9999947840352121
1400.1523984235307 0.9999958374524642
1400.1537985766292 0.9999963499424047
1400.1551987311277 0.9999964203647128
1400.1565988870266 0.9999962036691633
1400.1579990443256 0.9999958470483707
1400.1593992030246 0.999995465245831
1400.160799363124 0.9999950887709312
1400.1621995246232 0.9999946437947012
1400.163599687523 0.9999940580062331
1400.1649998518228 0.9999934168862551
1400.1664000175226 0.999992965228136
1400.1678001846226 0.9999928963401421
1400.169200353123 0.9999931321636676
1400.170600523023 0.9999933163727766
1400.1720006943237 0.9999930373745369
1400.1734008670244 0.999992150282283
1400.1748010411254 0.9999909839877552
1400.1762012166264 0.9999902081242384
1400.1776013935278 0.999990376501124
1400.179001571829 0.9999915124914529
1400.1804017515308 0.9999931164119727
1400.1818019326327 0.9999945552184404
1400.1832021151345 0.9999954459047953
1400.1846022990367 0.9999957632078958
1400.1860024843393 0.9999957454522751
1400.1874026710416 0.9999957348575815
1400.1888028591443 0.9999959376078587
1400.1902030486472 0.9999962019629736
1400.1916032395504 0.999996067236108
1400.1930034318539 0.9999950990324737
1400.1944036255572 0.9999932762143604
1400.1958038206608 0.999991206888237
1400.1972040171647 0.9999899097471749
1400.1986042150688 0.99999009864817
1400.200004414373 0.9999915921918135
1400.2014046150775 0.9999935479177773
1400.2028048171821 0.9999952251614195
1400.204205020687 0.9999964029087832
1400.205605225592 0.999997205721174
1400.2070054318974 0.9999977793532769
1400.208405639603 0.9999981681934316
1400.2098058487086 0.9999983769055821
1400.2112060592144 0.9999984574128582
1400.2126062711204 0.9999985261670126
1400.2140064844268 0.9999987043409777
1400.2154066991332 0.9999990323379867
1400.21680691524 0.9999994366930136
1400.218207132747 0.9999997857111659
1400.2196073516543 0.9999999799397606
1400.221007571962 1.0
1400.2224077936694 0.9999998887191908
1400.2238080167772 0.9999997005285571
1400.2252082412851 0.9999994639472412
1400.2266084671935 0.9999991852192845
1400.228008694502 0.9999988859261055
1400.2294089232107 0.9999986186661713
1400.2308091533198 0.9999984230525231
1400.232209384829 0.9999982848544762
1400.2336096177385 0.9999981668295458
1400.2350098520483 0.9999980540091098
1400.2364100877583 0.999997941555091
1400.2378103248684 0.9999978059994464
1400.239210563379 0.9999976255515527
1400.2406108032897 0.9999974109519042
1400.2420110446005 0.9999971711378673
1400.2434112873118 0.9999968611746892
1400.2448115314232 0.9999964410166857
1400.246211776935 0.9999960139843135
1400.247612023847 0.9999958160353923
1400.2490122721592 0.9999959839524463
1400.2504125218716 0.9999963828216355
1400.2518127729843 0.9999967351510507
1400.2532130254974 0.9999968786366735
1400.2546132794105 0.999996868975106
1400.256013534724 0.9999968820121385
1400.2574137914376 0.9999970505908147
1400.2588140495516 0.9999973760920704
1400.2602143090658 0.9999977643556391
1400.2616145699803 0.9999981225186136
1400.2630148322949 0.9999984125319789
1400.2644150960098 0.9999986300667879
1400.265815361125 0.9999987580819659
1400.2672156276406 0.9999987564667976
1400.2686158955562 0.9999986114016938
1400.270016164872 0.9999983977658999
1400.2714164355882 0.9999982615242674
1400.2728167077046 0.9999983060050538
1400.2742169812213 0.9999984906930113
1400.2756172561385 0.9999986558707453
1400.2770175324558 0.9999986525569365
1400.2784178101736 0.9999984433081585
1400.2798180892914 0.9999980810199888
1400.2812183698097 0.9999976108815564
1400.282618651728 0.99999701483947
1400.2840189350468 0.9999962666061513
1400.2854192197656 0.9999954419571577
1400.286819505885 0.9999947576472005
1400.2882197934048 0.9999944690751255
1400.2896200823245 0.9999946971574545
1400.2910203726449 0.999995335564705
1400.2924206643652 0.999996122039609
1400.2938209574859 0.9999968124069398
1400.295221252007 0.9999973055415194
1400.2966215479285 0.9999976343398924
1400.29802184525 0.999997870597812
1400.2994221439722 0.9999980425953284
1400.3008224440941 0.9999981237685657
1400.3022227456167 0.999998083681949
1400.3036230485395 0.9999979427008573
1400.3050233528627 0.99999777568841
1400.3064236585863 0.9999976639801015
1400.3078239657098 0.999997647668237
1400.309224274234 0.9999977242488267
1400.3106245841584 0.999997869591596
1400.312024895483 0.999998031684711
1400.3134252082082 0.9999981288642023
1400.3148255223332 0.9999981082490833
1400.316225837859 0.9999980033908739
1400.3176261547849 0.9999978938715176
1400.319026473111 0.9999978150638948
1400.320426792838 0.9999977403669693
1400.3218271139647 0.999997623948519
1400.323227436492 0.9999973968817306
1400.3246277604194 0.9999969165715047
1400.3260280857473 0.9999959879201544
1400.3274284124757 0.9999945208198369
1400.3288287406042 0.9999927342071291
1400.330229070133 0.9999911954101134
1400.3316294010624 0.9999905323526247
1400.3330297333919 0.9999909776617855
1400.3344300671215 0.999992167434011
1400.3358304022518 0.9999933982531117
1400.3372307387822 0.9999940277653502
1400.338631076713 0.9999936263720163
1400.3400314160442 0.9999919350480473
1400.3414317567758 0.9999890131452596
1400.3428320989074 0.9999856360664826
1400.3442324424398 0.9999832995304766
1400.3456327873723 0.9999832979101655
1400.3470331337053 0.9999856378636243
1400.3484334814386 0.9999890815066864
1400.3498338305722 0.9999922415126271
1400.351234181106 0.9999944408821503
1400.3526345330404 0.9999956950196759
1400.354034886375 0.9999963041442225
1400.35543524111 0.9999965721026576
1400.3568355972454 0.9999966960420739
1400.358235954781 0.9999967395796096
1400.3596363137171 0.9999966695555607
1400.3610366740536 0.9999964325888966
1400.3624370357904 0.999996008259332
1400.3638373989274 0.9999954142217462
1400.365237763465 0.9999947020284139
1400.3666381294029 0.9999939731141223
1400.3680384967413 0.9999933708658828
1400.3694388654799 0.9999929991802545
1400.370839235619 0.9999928283008677
1400.3722396071585 0.9999926896410698
1400.373639980098 0.9999923539846333
1400.3750403544382 0.999991611384671
1400.3764407301785 0.9999902738692679
1400.3778411073195 0.9999880436265854
1400.3792414858606 0.9999842372121281
1400.3806418658023 0.9999774360246365
1400.3820422471442 0.9999654116410843
1400.3834426298865 0.9999462406929661
1400.3848430140292 0.9999211509781443
1400.3862433995725 0.9998965827483606
1400.387643786516 0.9998814051483722
1400.38904417486 0.9998814274905576
1400.3904445646042 0.9998965542342048
1400.3918449557489 0.9999208758679251
1400.393245348294 0.9999455944051128
1400.3946457422394 0.9999643937227815
1400.3960461375855 0.9999760914747541
1400.3974465343317 0.999982583848597
1400.3988469324784 0.9999860270231782
1400.4002473320254 0.9999877860420335
1400.401647732973 0.9999886298455652
1400.403048135321 0.9999891085557684
1400.404448539069 0.9999896634940193
1400.4058489442177 0.9999905330247754
1400.4072493507667 0.9999916815137802
1400.4086497587164 0.9999928785670252
1400.4100501680662 0.9999938773821662
1400.4114505788166 0.9999945533531924
1400.4128509909672 0.9999949114697626
1400.4142514045184 0.9999950115802447
1400.41565181947 0.9999949202649729
1400.4170522358218 0.9999947211502732
1400.4184526535741 0.9999945254334799
1400.4198530727272 0.9999944242269989
1400.4212534932803 0.9999943977399308
1400.4226539152342 0.9999942758988732
1400.424054338588 0.9999938333660365
1400.4254547633425 0.9999929821566329
1400.4268551894975 0.9999919296838974
1400.4282556170526 0.9999911600113498
1400.4296560460084 0.9999911660358791
1400.4310564763646 0.9999920921806876
1400.4324569081211 0.9999936182912258
1400.433857341278 0.9999951972322607
1400.4352577758357 0.999996412465901
1400.4366582117939 0.9999971624336728
1400.438058649152 0.9999975977095559
1400.439459087911 0.9999979346046609
1400.4408595280702 0.9999983000181621
1400.44225996963 0.999998691466698
1400.44366041259 0.9999990451594544
1400.4450608569507 0.99999931354411
1400.4464613027117 0.9999994726695118
1400.4478617498733 0.9999995075668342
1400.449262198435 0.9999994411313136
1400.4506626483976 0.9999993551474194
1400.4520630997604 0.9999993385066109
1400.4534635525235 0.9999994125436781
1400.4548640066873 0.9999995162056756
1400.4562644622515 0.9999995469558692
1400.4576649192163 0.9999994145008612
1400.4590653775813 0.9999990939902107
1400.4604658373469 0.9999986657930601
1400.4618662985129 0.9999982987115495
1400.4632667610795 0.9999981490505511
1400.4646672250465 0.9999982387234311
1400.4660676904139 0.9999984294434813
1400.4674681571817 0.99999851469428
1400.46886862535 0.9999983231831615
1400.4702690949189 0.9999977674266565
1400.4716695658883 0.9999968848213225
1400.473070038258 0.9999958932963856
1400.4744705120281 0.9999951296978012
1400.4758709871987 0.999994768309985
1400.47727146377 0.9999945753820092
1400.4786719417416 0.9999940907544728
1400.4800724211138 0.9999931444741978
1400.4814729018863 0.9999921543013163
1400.4828733840593 0.999991831221905
1400.484273867633 0.9999925522585407
1400.4856743526068 0.9999940394650545
1400.4870748389815 0.9999956534934172
1400.4884753267565 0.9999969062494214
1400.489875815932 0.9999976740403366
1400.491276306508 0.9999980654071583
1400.4926767984848 0.9999982273997068
1400.4940772918617 0.9999982534209801
1400.495477786639 0.9999981759568096
1400.496878282817 0.9999979931449297
1400.4982787803954 0.9999976943867703
1400.4996792793743 0.9999972503930407
1400.5010797797538 0.9999965533312337
1400.5024802815337 0.9999953510930573
1400.5038807847143 0.9999932704130066
1400.5052812892952 0.9999900260298974
1400.5066817952768 0.9999858136103364
1400.5080823026587 0.9999816131780102
1400.5094828114413 0.9999789124575419
1400.5108833216245 0.9999787886538499
1400.5122838332081 0.9999810917392472
1400.5136843461921 0.9999845586839841
1400.515084860577 0.9999877593142446
1400.516485376362 0.9999899876471363
1400.5178858935476 0.9999914307900911
1400.5192864121339 0.9999926725643399
1400.5206869321207 0.9999940583527297
1400.5220874535078 0.9999954739745109
1400.5234879762957 0.9999966407715533
1400.524888500484 0.9999974554779785
1400.5262890260726 0.9999980051979793
1400.527689553062 0.999998385682777
1400.5290900814518 0.9999985986352607
1400.5304906112422 0.9999985974321829
1400.5318911424329 0.9999983817418346
1400.5332916750244 0.9999980357152561
1400.5346922090162 0.9999976839475878
1400.5360927444087 0.9999974144928174
1400.5374932812015 0.999997249166337
1400.538893819395 0.9999971822107593
1400.540294358989 0.9999972097076876
1400.5416948999834 0.9999972966803717
1400.5430954423784 0.9999973301764745
1400.5444959861743 0.9999971288168743
1400.5458965313705 0.9999965365140775
1400.5472970779674 0.9999955892757567
1400.5486976259647 0.9999946293360125
1400.5500981753626 0.9999941499007631
1400.551498726161 0.999994399407377
1400.55289927836 0.9999951664760315
1400.5542998319593 0.9999960131587611
1400.5557003869592 0.999996632424895
1400.55710094336 0.9999969306934853
1400.5585015011613 0.9999969037875538
1400.559902060363 0.9999965827413635
1400.5613026209653 0.9999960828227665
1400.562703182968 0.9999955804065385
1400.5641037463713 0.9999951606334423
1400.5655043111756 0.9999947063432297
1400.5669048773802 0.9999939925565614
1400.5683054449853 0.9999928975652473
1400.569706013991 0.999991490080364
1400.571106584397 0.9999898780608034
1400.5725071562038 0.9999879693211502
1400.5739077294113 0.9999854470877141
1400.5753083040192 0.9999821363342224
1400.5767088800278 0.9999785210081938
1400.5781094574368 0.9999757096395174
1400.5795100362463 0.9999745315795486
1400.5809106164568 0.9999744822076306
1400.5823111980676 0.999973551147622
1400.583711781079 0.999969301762086
1400.5851123654909 0.9999609051058689
1400.5865129513036 0.9999508820765775
1400.587913538517 0.9999443311717154
1400.5893141271306 0.9999453537473653
1400.5907147171447 0.9999539113114859
1400.5921153085599 0.9999660547155053
1400.5935159013754 0.9999771319479528
1400.5949164955914 0.9999847763643243
1400.5963170912082 0.9999891491364775
1400.5977176882257 0.9999914509919373
1400.5991182866437 0.9999927213542227
1400.600518886462 0.9999934812692315
1400.6019194876812 0.9999938847786037
1400.603320090301 0.9999939595918699
1400.6047206943213 0.9999937317453303
1400.6061212997422 0.9999932805955088
1400.6075219065638 0.9999927967739425
1400.608922514786 0.9999925499659236
1400.6103231244088 0.9999927040584647
1400.611723735432 0.9999931536345537
1400.613124347856 0.9999935850389688
1400.6145249616807 0.9999937180236207
1400.6159255769057 0.9999934814710179
1400.6173261935317 0.999992990515132
1400.618726811558 0.9999924556913694
1400.6201274309851 0.9999921487472135
1400.621528051813 0.999992316715312
1400.6229286740413 0.9999929961640248
1400.62432929767 0.99999394456844
1400.6257299226997 0.9999948251547356
1400.6271305491298 0.9999954362842364
1400.6285311769605 0.9999957470921401
1400.629931806192 0.999995787808102
1400.631332436824 0.9999955927356862
1400.6327330688569 0.9999952460986297
1400.63413370229 0.9999949156569705
1400.6355343371242 0.9999947681588174
1400.6369349733588 0.9999948212556845
1400.6383356109939 0.9999949065425224
1400.6397362500297 0.9999947956684314
1400.6411368904662 0.9999943234588206
1400.6425375323033 0.99999339801949
1400.643938175541 0.9999920355806007
1400.6453388201796 0.9999904959250598
1400.6467394662186 0.9999892746829142
1400.6481401136584 0.9999888171488416
1400.6495407624989 0.9999892440431296
1400.65094141274 0.9999903625989655
1400.6523420643816 0.9999918480729217
1400.6537427174242 0.99999340685923
1400.655143371867 0.9999948588887013
1400.6565440277109 0.9999961195018895
1400.657944684955 0.9999971472228736
1400.6593453436 0.9999979341307187
1400.6607460036457 0.9999984973832627
1400.662146665092 0.9999988323211728
1400.6635473279389 0.9999988966702792
1400.6649479921866 0.9999986709773677
1400.6663486578348 0.999998237575489
1400.6677493248837 0.9999977918486618
1400.6691499933333 0.9999975366620534
1400.6705506631836 0.9999975195804179
1400.6719513344347 0.9999975921448537
1400.6733520070864 0.9999975821899169
1400.6747526811387 0.9999974986727123
1400.6761533565916 0.999997514049441
1400.6775540334452 0.999997747987811
1400.6789547116994 0.9999981346837074
1400.6803553913544 0.9999985090422094
1400.6817560724103 0.9999987424025023
1400.6831567548666 0.9999987760503642
1400.6845574387237 0.9999985980468825
1400.6859581239812 0.9999982430778666
1400.6873588106396 0.9999978092302313
1400.6887594986988 0.999997449747191
1400.6901601881586 0.9999973138716275
1400.691560879019 0.9999974553885325
1400.6929615712804 0.9999977862405615
1400.6943622649421 0.9999981394452621
1400.6957629600047 0.9999983857820542
1400.697163656468 0.99999848991752
1400.6985643543321 0.9999984838860136
1400.6999650535968 0.9999984158767563
1400.7013657542623 0.9999983183979646
1400.7027664563282 0.9999982056664082
1400.704167159795 0.9999980840240414
1400.7055678646625 0.9999979365540584
1400.7069685709307 0.9999976802678899
1400.7083692785995 0.9999971718940169
1400.7097699876692 0.9999963159308689
1400.7111706981393 0.999995193194657
1400.7125714100105 0.9999940623819696
1400.7139721232822 0.9999931962166481
1400.7153728379546 0.9999926754802548
1400.716773554028 0.9999923098042957
1400.7181742715018 0.9999917531082317
1400.7195749903763 0.9999906969857302
1400.7209757106516 0.9999889578540835
1400.7223764323276 0.9999864767007665
1400.7237771554042 0.999983496954762
1400.7251778798818 0.9999808988814809
1400.7265786057599 0.9999800038397565
1400.7279793330385 0.9999815252412344
1400.7293800617183 0.9999847168864592
1400.7307807917987 0.9999878623585571
1400.73218152328 0.9999895804453836
1400.7335822561618 0.9999896421028466
1400.7349829904442 0.9999888792053947
1400.7363837261275 0.9999885170775036
1400.7377844632117 0.9999893388361493
1400.7391852016965 0.9999912147536973
