Atmospheric Species: CO2
Metallicity: 1
C/O_Ratio: 0.5
Wavelength[nm] Flux_variation
1399.999790129412 1.0
1400.0011901299022 0.9999999998459955
1400.0025901317922 0.9999999997036902
1400.0039901350824 0.9999999995673451
1400.0053901397725 0.9999999994221058
1400.0067901458626 0.9999999992587599
1400.0081901533526 0.9999999990770448
1400.0095901622426 0.9999999988837832
1400.0109901725325 0.9999999986929025
1400.0123901842228 0.9999999985203584
1400.013790197313 0.9999999983686907
1400.0151902118032 0.9999999982237772
1400.0165902276933 0.9999999980796922
1400.0179902449836 0.9999999979479216
1400.0193902636736 0.9999999978315781
1400.0207902837637 0.9999999977161729
1400.022190305254 0.9999999975903915
1400.0235903281443 0.9999999974565625
1400.0249903524345 0.9999999973202338
1400.026390378125 0.999999997181505
1400.0277904052152 0.9999999970376937
1400.0291904337057 0.9999999968877171
1400.0305904635961 0.9999999967317407
1400.0319904948865 0.9999999965691231
1400.033390527577 0.9999999963975731
1400.0347905616675 0.9999999962131212
1400.036190597158 0.9999999960120007
1400.0375906340487 0.9999999958005763
1400.0389906723392 0.9999999956033188
1400.0403907120299 0.9999999954386435
1400.0417907531203 0.9999999952888925
1400.043190795611 0.9999999951277121
1400.044590839502 0.9999999949618775
1400.0459908847927 0.9999999948136582
1400.0473909314835 0.9999999946832958
1400.0487909795743 0.9999999945523536
1400.0501910290652 0.9999999944100221
1400.0515910799563 0.999999994263378
1400.0529911322474 0.9999999941225616
1400.0543911859386 0.9999999939856672
1400.0557912410297 0.9999999938474557
1400.0571912975208 0.9999999937085404
1400.058591355412 0.9999999935662665
1400.0599914147035 0.9999999934137814
1400.0613914753947 0.9999999932529497
1400.0627915374862 0.9999999930926761
1400.064191600978 0.999999992934095
1400.0655916658693 0.9999999927682897
1400.0669917321611 0.9999999925865416
1400.0683917998526 0.9999999923900559
1400.0697918689445 0.999999992193229
1400.0711919394364 0.9999999920137773
1400.0725920113282 0.9999999918616892
1400.0739920846202 0.9999999917366633
1400.0753921593123 0.9999999916230172
1400.0767922354044 0.9999999914959854
1400.0781923128966 0.9999999913417628
1400.079592391789 0.9999999911583243
1400.080992472081 0.999999990939541
1400.0823925537738 0.9999999906774866
1400.0837926368663 0.999999990382551
1400.085192721359 0.9999999900808517
1400.0865928072517 0.9999999898024323
1400.0879928945444 0.9999999895997711
1400.0893929832373 0.9999999895174594
1400.0907930733304 0.9999999895044868
1400.0921931648231 0.9999999894576638
1400.0935932577163 0.9999999893513245
1400.0949933520096 0.9999999892327177
1400.096393447703 0.9999999891358172
1400.0977935447963 0.9999999890530187
1400.09919364329 0.999999988961085
1400.1005937431835 0.9999999888445616
1400.1019938444774 0.9999999886919647
1400.1033939471713 0.9999999884852359
1400.1047940512653 0.9999999882199375
1400.1061941567593 0.9999999879522483
1400.1075942636535 0.9999999877754628
1400.1089943719478 0.9999999877024358
1400.110394481642 0.9999999876516488
1400.1117945927365 0.9999999875675829
1400.1131947052309 0.9999999874605812
1400.1145948191256 0.9999999873480048
1400.1159949344203 0.9999999872216105
1400.1173950511154 0.9999999870593703
1400.1187951692102 0.9999999868479829
1400.1201952887054 0.9999999866136217
1400.1215954096008 0.9999999864234128
1400.122995531896 0.9999999863100765
1400.1243956555918 0.9999999862281507
1400.1257957806874 0.9999999861290654
1400.1271959071832 0.9999999860171117
1400.1285960350792 0.9999999859098846
1400.1299961643751 0.9999999858014211
1400.1313962950712 0.9999999856777818
1400.1327964271677 0.9999999855353798
1400.1341965606641 0.9999999853769431
1400.1355966955607 0.9999999852056664
1400.1369968318575 0.9999999850254516
1400.1383969695542 0.9999999848389052
1400.1397971086512 0.9999999846461135
1400.1411972491485 0.9999999844494046
1400.1425973910457 0.9999999842501582
1400.1439975343433 0.9999999840435986
1400.1453976790406 0.9999999838429141
1400.1467978251383 0.9999999836865731
1400.1481979726364 0.9999999835819514
1400.1495981215342 0.9999999834872424
1400.1509982718323 0.9999999833675794
1400.1523984235307 0.9999999832220393
1400.1537985766292 0.9999999830679163
1400.1551987311277 0.9999999829244597
1400.1565988870266 0.9999999827957301
1400.1579990443256 0.9999999826651141
1400.1593992030246 0.9999999825210344
1400.160799363124 0.9999999823778024
1400.1621995246232 0.9999999822526711
1400.163599687523 0.9999999821386201
1400.1649998518228 0.9999999820170842
1400.1664000175226 0.9999999818797702
1400.1678001846226 0.9999999817280015
1400.169200353123 0.9999999815667999
1400.170600523023 0.99999998139238
1400.1720006943237 0.9999999812033362
1400.1734008670244 0.9999999810120577
1400.1748010411254 0.999999980843072
1400.1762012166264 0.999999980706449
1400.1776013935278 0.9999999805876439
1400.179001571829 0.9999999804681526
1400.1804017515308 0.9999999803359997
1400.1818019326327 0.9999999801818623
1400.1832021151345 0.9999999800050658
1400.1846022990367 0.9999999798231378
1400.1860024843393 0.9999999796583809
1400.1874026710416 0.9999999795103709
1400.1888028591443 0.9999999793625642
1400.1902030486472 0.9999999792121302
1400.1916032395504 0.9999999790652159
1400.1930034318539 0.999999978912983
1400.1944036255572 0.9999999787406111
1400.1958038206608 0.9999999785529707
1400.1972040171647 0.9999999783643139
1400.1986042150688 0.9999999781964601
1400.200004414373 0.9999999780465377
1400.2014046150775 0.999999977909905
1400.2028048171821 0.9999999777901927
1400.204205020687 0.9999999776838222
1400.205605225592 0.9999999775728219
1400.2070054318974 0.9999999774427822
1400.208405639603 0.999999977291801
1400.2098058487086 0.9999999771217801
1400.2112060592144 0.9999999769336037
1400.2126062711204 0.9999999767309159
1400.2140064844268 0.9999999765187417
1400.2154066991332 0.9999999762889901
1400.21680691524 0.9999999760119309
1400.218207132747 0.9999999756618246
1400.2196073516543 0.9999999752802831
1400.221007571962 0.9999999750022928
1400.2224077936694 0.9999999749310788
1400.2238080167772 0.9999999749972069
1400.2252082412851 0.9999999750493282
1400.2266084671935 0.9999999750183325
1400.228008694502 0.9999999749203159
1400.2294089232107 0.999999974785587
1400.2308091533198 0.9999999746312908
1400.232209384829 0.99999997446889
1400.2336096177385 0.9999999743010388
1400.2350098520483 0.9999999741048269
1400.2364100877583 0.9999999738455926
1400.2378103248684 0.9999999735413497
1400.239210563379 0.9999999732986123
1400.2406108032897 0.9999999732025788
1400.2420110446005 0.999999973197391
1400.2434112873118 0.9999999731688759
1400.2448115314232 0.9999999730647319
1400.246211776935 0.999999972890211
1400.247612023847 0.9999999726846075
1400.2490122721592 0.9999999725130352
1400.2504125218716 0.9999999724082957
1400.2518127729843 0.9999999723325675
1400.2532130254974 0.9999999722337019
1400.2546132794105 0.9999999720933231
1400.256013534724 0.9999999719108672
1400.2574137914376 0.9999999716935342
1400.2588140495516 0.999999971477598
1400.2602143090658 0.9999999713136943
1400.2616145699803 0.9999999712014354
1400.2630148322949 0.9999999710892731
1400.2644150960098 0.9999999709478427
1400.265815361125 0.9999999707932772
1400.2672156276406 0.9999999706476025
1400.2686158955562 0.999999970509755
1400.270016164872 0.9999999703674828
1400.2714164355882 0.9999999702159015
1400.2728167077046 0.9999999700554434
1400.2742169812213 0.999999969889743
1400.2756172561385 0.9999999697300024
1400.2770175324558 0.9999999695872295
1400.2784178101736 0.9999999694602066
1400.2798180892914 0.9999999693368514
1400.2812183698097 0.9999999692054544
1400.282618651728 0.9999999690632767
1400.2840189350468 0.9999999689151101
1400.2854192197656 0.999999968765032
1400.286819505885 0.9999999686125931
1400.2882197934048 0.9999999684569268
1400.2896200823245 0.9999999682995502
1400.2910203726449 0.9999999681409922
1400.2924206643652 0.9999999679783625
1400.2938209574859 0.9999999678081757
1400.295221252007 0.9999999676307108
1400.2966215479285 0.9999999674503173
1400.29802184525 0.9999999672732443
1400.2994221439722 0.9999999671066012
1400.3008224440941 0.9999999669532483
1400.3022227456167 0.9999999668050286
1400.3036230485395 0.9999999666472873
1400.3050233528627 0.9999999664719608
1400.3064236585863 0.9999999662855937
1400.3078239657098 0.9999999661036347
1400.309224274234 0.9999999659360238
1400.3106245841584 0.9999999657814026
1400.312024895483 0.9999999656306177
1400.3134252082082 0.9999999654665135
1400.3148255223332 0.9999999652715506
1400.316225837859 0.9999999650563519
1400.3176261547849 0.9999999648661203
1400.319026473111 0.9999999647265148
1400.320426792838 0.9999999646083816
1400.3218271139647 0.9999999644704989
1400.323227436492 0.9999999642999511
1400.3246277604194 0.9999999641143285
1400.3260280857473 0.9999999639500508
1400.3274284124757 0.999999963826621
1400.3288287406042 0.9999999637223703
1400.330229070133 0.9999999636038251
1400.3316294010624 0.999999963461708
1400.3330297333919 0.9999999633096744
1400.3344300671215 0.9999999631616382
1400.3358304022518 0.999999963014365
1400.3372307387822 0.9999999628524847
1400.338631076713 0.9999999626669923
1400.3400314160442 0.9999999624645945
1400.3414317567758 0.9999999622651775
1400.3428320989074 0.9999999620916896
1400.3442324424398 0.9999999619482738
1400.3456327873723 0.9999999618119764
1400.3470331337053 0.9999999616623342
1400.3484334814386 0.9999999615043828
1400.3498338305722 0.9999999613534378
1400.351234181106 0.9999999612163663
1400.3526345330404 0.9999999610883069
1400.354034886375 0.9999999609542067
1400.35543524111 0.9999999607995148
1400.3568355972454 0.9999999606265757
1400.358235954781 0.999999960457213
1400.3596363137171 0.9999999603127956
1400.3610366740536 0.9999999601911264
1400.3624370357904 0.9999999600712467
1400.3638373989274 0.9999999599373998
1400.365237763465 0.9999999597878654
1400.3666381294029 0.9999999596258567
1400.3680384967413 0.9999999594511152
1400.3694388654799 0.9999999592602885
1400.370839235619 0.9999999590559521
1400.3722396071585 0.9999999588560079
1400.373639980098 0.9999999586832854
1400.3750403544382 0.9999999585416066
1400.3764407301785 0.9999999584135896
1400.3778411073195 0.9999999582809032
1400.3792414858606 0.9999999581370396
1400.3806418658023 0.9999999579807747
1400.3820422471442 0.9999999578075578
1400.3834426298865 0.9999999576156445
1400.3848430140292 0.9999999574140066
1400.3862433995725 0.999999957215717
1400.387643786516 0.9999999570273911
1400.38904417486 0.9999999568451444
1400.3904445646042 0.9999999566537375
1400.3918449557489 0.9999999564495695
1400.393245348294 0.999999956263878
1400.3946457422394 0.9999999561153012
1400.3960461375855 0.9999999559807479
1400.3974465343317 0.9999999558591315
1400.3988469324784 0.9999999557718892
1400.4002473320254 0.9999999556992131
1400.401647732973 0.9999999556026581
1400.403048135321 0.99999995547366
1400.404448539069 0.9999999553218389
1400.4058489442177 0.9999999551529897
1400.4072493507667 0.9999999549685746
1400.4086497587164 0.9999999547652446
1400.4100501680662 0.9999999545339608
1400.4114505788166 0.9999999542841321
1400.4128509909672 0.9999999540678457
1400.4142514045184 0.9999999539293649
1400.41565181947 0.9999999538349771
1400.4170522358218 0.9999999537154387
1400.4184526535741 0.9999999535480518
1400.4198530727272 0.9999999533471785
1400.4212534932803 0.9999999531120675
1400.4226539152342 0.9999999528485553
1400.424054338588 0.9999999526328422
1400.4254547633425 0.9999999525415691
1400.4268551894975 0.9999999525304343
1400.4282556170526 0.9999999525039573
1400.4296560460084 0.9999999524314452
1400.4310564763646 0.9999999523262552
1400.4324569081211 0.9999999521972559
1400.433857341278 0.9999999520481562
1400.4352577758357 0.9999999518865718
1400.4366582117939 0.9999999517200108
1400.438058649152 0.9999999515533146
1400.439459087911 0.9999999513954997
1400.4408595280702 0.9999999512549513
1400.44225996963 0.9999999511254754
1400.44366041259 0.9999999509920838
1400.4450608569507 0.9999999508463558
1400.4464613027117 0.9999999506881163
1400.4478617498733 0.9999999505194063
1400.449262198435 0.9999999503464564
1400.4506626483976 0.9999999501822333
1400.4520630997604 0.9999999500330513
1400.4534635525235 0.9999999498896037
1400.4548640066873 0.9999999497390121
1400.4562644622515 0.99999994957379
1400.4576649192163 0.9999999493879376
1400.4590653775813 0.9999999491769298
1400.4604658373469 0.9999999489505681
1400.4618662985129 0.999999948737577
1400.4632667610795 0.9999999485521935
1400.4646672250465 0.9999999483615442
1400.4660676904139 0.9999999481209026
1400.4674681571817 0.9999999478517287
1400.46886862535 0.999999947652783
1400.4702690949189 0.9999999475829194
1400.4716695658883 0.9999999475758838
1400.473070038258 0.9999999475358586
1400.4744705120281 0.9999999474404073
1400.4758709871987 0.9999999473159116
1400.47727146377 0.9999999471825032
1400.4786719417416 0.9999999470423117
1400.4800724211138 0.9999999468936481
1400.4814729018863 0.9999999467388052
1400.4828733840593 0.9999999465783086
1400.484273867633 0.9999999464080017
1400.4856743526068 0.9999999462258073
1400.4870748389815 0.9999999460371666
1400.4884753267565 0.9999999458562029
1400.489875815932 0.9999999456982455
1400.491276306508 0.9999999455617385
1400.4926767984848 0.9999999454277114
1400.4940772918617 0.9999999452826625
1400.495477786639 0.9999999451260395
1400.496878282817 0.999999944957412
1400.4982787803954 0.9999999447721103
1400.4996792793743 0.9999999445664964
1400.5010797797538 0.999999944335067
1400.5024802815337 0.9999999440632604
1400.5038807847143 0.999999943742695
1400.5052812892952 0.9999999434222835
1400.5066817952768 0.9999999432197142
1400.5080823026587 0.9999999431901163
1400.5094828114413 0.999999943232382
1400.5108833216245 0.9999999432193529
1400.5122838332081 0.9999999431179882
1400.5136843461921 0.9999999429542303
1400.515084860577 0.9999999427631466
1400.516485376362 0.999999942583415
1400.5178858935476 0.9999999424435633
1400.5192864121339 0.9999999423342829
1400.5206869321207 0.9999999422192002
1400.5220874535078 0.9999999420782041
1400.5234879762957 0.9999999419237614
1400.524888500484 0.9999999417768657
1400.5262890260726 0.999999941638018
1400.527689553062 0.9999999414874474
1400.5290900814518 0.9999999413095598
1400.5304906112422 0.99999994111064
1400.5318911424329 0.9999999409119874
1400.5332916750244 0.9999999407219581
1400.5346922090162 0.9999999405286725
1400.5360927444087 0.9999999403398834
1400.5374932812015 0.9999999401891374
1400.538893819395 0.9999999400761908
1400.540294358989 0.9999999399644831
1400.5416948999834 0.9999999398366768
1400.5430954423784 0.9999999396994875
1400.5444959861743 0.9999999395586344
1400.5458965313705 0.9999999394118853
1400.5472970779674 0.9999999392532111
1400.5486976259647 0.9999999390778911
1400.5500981753626 0.9999999388781431
1400.551498726161 0.9999999386387284
1400.55289927836 0.9999999383638246
1400.5542998319593 0.9999999381078835
1400.5557003869592 0.9999999379290276
1400.55710094336 0.9999999378146206
1400.5585015011613 0.9999999377043762
1400.559902060363 0.9999999375566815
1400.5613026209653 0.9999999373694757
1400.562703182968 0.9999999371922152
1400.5641037463713 0.9999999370743162
1400.5655043111756 0.9999999369865211
1400.5669048773802 0.9999999368435846
1400.5683054449853 0.999999936595101
1400.569706013991 0.999999936285172
1400.571106584397 0.9999999360451468
1400.5725071562038 0.9999999359540553
1400.5739077294113 0.9999999359327064
1400.5753083040192 0.9999999358701797
1400.5767088800278 0.9999999357531727
1400.5781094574368 0.9999999356213147
1400.5795100362463 0.9999999354958834
1400.5809106164568 0.9999999353771933
1400.5823111980676 0.9999999352614803
1400.583711781079 0.9999999351434763
1400.5851123654909 0.9999999350162136
1400.5865129513036 0.9999999348745403
1400.587913538517 0.9999999347176886
1400.5893141271306 0.9999999345494662
1400.5907147171447 0.9999999343795121
1400.5921153085599 0.9999999342187742
1400.5935159013754 0.9999999340665098
1400.5949164955914 0.9999999339080579
1400.5963170912082 0.9999999337280737
1400.5977176882257 0.9999999335194728
1400.5991182866437 0.9999999332875346
1400.600518886462 0.9999999330570174
1400.6019194876812 0.9999999328606631
1400.603320090301 0.9999999327107519
1400.6047206943213 0.9999999325929091
1400.6061212997422 0.9999999324818049
1400.6075219065638 0.9999999323582932
1400.608922514786 0.9999999322177398
1400.6103231244088 0.9999999320639844
1400.611723735432 0.9999999319020074
1400.613124347856 0.9999999317367637
1400.6145249616807 0.9999999315747188
1400.6159255769057 0.9999999314237663
1400.6173261935317 0.9999999312851621
1400.618726811558 0.999999931148198
1400.6201274309851 0.9999999310000915
1400.621528051813 0.9999999308386951
1400.6229286740413 0.9999999306718385
1400.62432929767 0.9999999305044409
1400.6257299226997 0.9999999303355622
1400.6271305491298 0.9999999301711858
1400.6285311769605 0.9999999300229725
1400.629931806192 0.9999999298904799
1400.631332436824 0.9999999297584921
1400.6327330688569 0.9999999296160643
1400.63413370229 0.9999999294684433
1400.6355343371242 0.9999999293241354
1400.6369349733588 0.9999999291807866
1400.6383356109939 0.9999999290315268
1400.6397362500297 0.9999999288738503
1400.6411368904662 0.9999999287067368
1400.6425375323033 0.999999928527715
1400.643938175541 0.9999999283380294
1400.6453388201796 0.9999999281478675
1400.6467394662186 0.999999927969491
1400.6481401136584 0.9999999278061835
1400.6495407624989 0.9999999276536661
1400.65094141274 0.9999999275042597
1400.6523420643816 0.9999999273462746
1400.6537427174242 0.999999927169858
1400.655143371867 0.9999999269771812
1400.6565440277109 0.9999999267858873
1400.657944684955 0.9999999266175964
1400.6593453436 0.9999999264753667
1400.6607460036457 0.9999999263407846
1400.662146665092 0.9999999261966681
1400.6635473279389 0.9999999260405399
1400.6649479921866 0.9999999258774149
1400.6663486578348 0.9999999257082755
1400.6677493248837 0.9999999255326325
1400.6691499933333 0.9999999253555863
1400.6705506631836 0.9999999251740465
1400.6719513344347 0.9999999249614363
1400.6733520070864 0.9999999246903177
1400.6747526811387 0.9999999243929613
1400.6761533565916 0.9999999241734876
1400.6775540334452 0.9999999240892037
1400.6789547116994 0.9999999240686107
1400.6803553913544 0.9999999240178258
1400.6817560724103 0.9999999239181905
1400.6831567548666 0.9999999237934427
1400.6845574387237 0.9999999236601479
1400.6859581239812 0.9999999235192473
1400.6873588106396 0.9999999233654794
1400.6887594986988 0.9999999231944816
1400.6901601881586 0.9999999230050515
1400.691560879019 0.9999999228032374
1400.6929615712804 0.9999999226021011
1400.6943622649421 0.9999999224060387
1400.6957629600047 0.9999999221979706
1400.697163656468 0.9999999219591789
1400.6985643543321 0.9999999217153392
1400.6999650535968 0.9999999215401162
1400.7013657542623 0.999999921620122
1400.7027664563282 0.9999999217293881
1400.704167159795 0.9999999218018808
1400.7055678646625 0.99999992183532
1400.7069685709307 0.9999999218526504
1400.7083692785995 0.9999999218684783
1400.7097699876692 0.9999999218893145
1400.7111706981393 0.9999999219151848
1400.7125714100105 0.9999999219368382
1400.7139721232822 0.9999999219461738
1400.7153728379546 0.9999999219474922
1400.716773554028 0.999999921943166
1400.7181742715018 0.9999999219227206
1400.7195749903763 0.9999999218808024
1400.7209757106516 0.9999999218263776
1400.7223764323276 0.9999999217694242
1400.7237771554042 0.9999999217160364
1400.7251778798818 0.9999999216745482
1400.7265786057599 0.99999992165289
1400.7279793330385 0.9999999216486506
1400.7293800617183 0.9999999216477616
1400.7307807917987 0.9999999216380403
1400.73218152328 0.9999999216196598
1400.7335822561618 0.9999999215978753
1400.7349829904442 0.9999999215792229
1400.7363837261275 0.9999999215860519
1400.7377844632117 0.9999999216432232
1400.7391852016965 0.9999999217303255
