Atmospheric Species: CO
Metallicity: 1
C/O_Ratio: 1.0
Wavelength[nm] Flux_variation
899.9996421494948 0.9999998141720655
900.0005421495869 0.9999998141721164
900.001442150579 0.9999998141721673
900.0023421524711 0.9999998141722182
900.0032421552633 0.9999998141722691
900.0041421589555 0.9999998141723199
900.0050421635475 0.9999998141723708
900.0059421690396 0.9999998141724217
900.0068421754318 0.9999998141724725
900.0077421827239 0.9999998141725235
900.0086421909161 0.9999998141725742
900.0095422000082 0.9999998141725533
900.0104422100004 0.999999814172485
900.0113422208927 0.9999998141724163
900.0122422326849 0.9999998141723478
900.013142245377 0.9999998141722796
900.0140422589691 0.999999814172211
900.0149422734613 0.9999998141721426
900.0158422888536 0.9999998141720741
900.0167423051458 0.9999998141720056
900.017642322338 0.9999998141719372
900.0185423404303 0.9999998141718686
900.0194423594227 0.9999998141718001
900.020342379315 0.9999998141717317
900.0212424001073 0.9999998141716632
900.0221424217997 0.9999998141715946
900.0230424443921 0.9999998141715262
900.0239424678846 0.9999998141714577
900.024842492277 0.9999998141713891
900.0257425175695 0.9999998141713207
900.0266425437621 0.999999814171252
900.0275425708543 0.9999998141711834
900.028442598847 0.999999814171115
900.0293426277395 0.9999998141710466
900.0302426575322 0.9999998141709779
900.0311426882248 0.9999998141709094
900.0320427198175 0.9999998141708409
900.0329427523099 0.9999998141707723
900.0338427857027 0.9999998141707037
900.0347428199954 0.9999998141706352
900.0356428551884 0.9999998141705666
900.0365428912813 0.9999998141704981
900.0374429282743 0.9999998141704295
900.0383429661671 0.9999998141703611
900.0392430049601 0.9999998141702925
900.0401430446531 0.9999998141702239
900.0410430852461 0.9999998141701554
900.041943126739 0.9999998141700867
900.0428431691322 0.9999998141700182
900.0437432124255 0.9999998141699497
900.0446432566187 0.9999998141698809
900.0455433017121 0.9999998141698123
900.0464433477051 0.9999998141697529
900.0473433945986 0.9999998141697046
900.0482434423918 0.9999998141696563
900.0491434910853 0.9999998141696079
900.0500435406788 0.9999998141695597
900.0509435911723 0.9999998141695113
900.051843642566 0.9999998141694629
900.0527436948595 0.9999998141694146
900.0536437480532 0.9999998141693663
900.0545438021469 0.9999998141693179
900.0554438571407 0.9999998141692696
900.0563439130347 0.9999998141692212
900.0572439698285 0.9999998141691728
900.0581440275225 0.9999998141691245
900.0590440861165 0.9999998141690762
900.0599441456106 0.999999814169028
900.0608442060047 0.9999998141689794
900.0617442672989 0.9999998141689311
900.0626443294932 0.9999998141688827
900.0635443925875 0.9999998141688344
900.064444456582 0.9999998141687859
900.0653445214763 0.9999998141687375
900.0662445872707 0.9999998141686892
900.0671446539653 0.9999998141686407
900.06804472156 0.9999998141685923
900.0689447900545 0.999999814168544
900.0698448594495 0.9999998141684956
900.0707449297444 0.9999998141684471
900.0716450009393 0.9999998141683987
900.0725450730342 0.9999998141683503
900.0734451460294 0.9999998141683019
900.0743452199245 0.9999998141682535
900.0752452947198 0.9999998141682049
900.0761453704149 0.9999998141681566
900.0770454470104 0.9999998141681081
900.0779455245058 0.9999998141680596
900.0788456029013 0.9999998141680113
900.0797456821969 0.9999998141679628
900.0806457623926 0.9999998141679144
900.0815458434884 0.9999998141678659
900.0824459254843 0.9999998141678176
900.0833460083802 0.999999814167769
900.0842460921762 0.9999998141677205
900.0851461768722 0.999999814167672
900.0860462624685 0.9999998141676235
900.0869463489646 0.999999814167575
900.087846436361 0.9999998141675266
900.0887465246574 0.9999998141674781
900.0896466138541 0.9999998141674296
900.0905467039507 0.999999814167381
900.0914467949473 0.9999998141673326
900.0923468868441 0.9999998141672841
900.093246979641 0.9999998141672356
900.0941470733379 0.9999998141671871
900.095047167935 0.9999998141671387
900.0959472634321 0.99999981416709
900.0968473598296 0.9999998141670415
900.0977474571268 0.999999814166993
900.0986475553243 0.9999998141669445
900.0995476544218 0.999999814166896
900.1004477544196 0.9999998141668475
900.1013478553174 0.9999998141667988
900.1022479571152 0.9999998141667504
900.1031480598132 0.9999998141667017
900.1040481634111 0.9999998141666532
900.1049482679095 0.9999998141666048
900.1058483733077 0.9999998141665561
900.1067484796062 0.9999998141665075
900.1076485868047 0.999999814166459
900.1085486949032 0.9999998141664105
900.1094488039018 0.9999998141663619
900.1103489138007 0.9999998141663132
900.1112490245996 0.9999998141662647
900.1121491362986 0.9999998141662161
900.1130492488979 0.9999998141661676
900.1139493623971 0.9999998141661189
900.1148494767965 0.9999998141660704
900.115749592096 0.9999998141660217
900.1166497082957 0.999999814165973
900.1175498253954 0.9999998141659245
900.1184499433953 0.9999998141658758
900.1193500622951 0.9999998141658273
900.1202501820952 0.9999998141657788
900.1211503027954 0.9999998141657301
900.1220504243958 0.9999998141656814
900.1229505468962 0.9999998141656328
900.1238506702967 0.9999998141655841
900.1247507945975 0.9999998141655354
900.1256509197983 0.9999998141654868
900.1265510458993 0.9999998141654383
900.1274511729004 0.9999998141653895
900.1283513008017 0.9999998141653409
900.129251429603 0.9999998141652922
900.1301515593042 0.9999998141652436
900.1310516899059 0.9999998141651949
900.1319518214076 0.9999998141651463
900.1328519538096 0.9999998141650976
900.1337520871116 0.9999998141650489
900.1346522213137 0.9999998141650002
900.1355523564158 0.9999998141649515
900.1364524924182 0.9999998141649029
900.1373526293208 0.9999998141648542
900.1382527671235 0.9999998141648054
900.1391529058263 0.9999998141647567
900.1400530454292 0.9999998141647081
900.1409531859323 0.9999998141646593
900.1418533273356 0.9999998141646106
900.1427534696388 0.999999814164562
900.1436536128424 0.9999998141645131
900.144553756946 0.9999998141644645
900.1454539019498 0.9999998141644157
900.1463540478538 0.999999814164367
900.1472541946582 0.9999998141643183
900.1481543423622 0.9999998141642695
900.1490544909666 0.9999998141642208
900.149954640471 0.9999998141641719
900.1508547908757 0.9999998141641233
900.1517549421804 0.9999998141640746
900.1526550943853 0.9999998141640258
900.1535552474907 0.999999814163977
900.1544554014959 0.9999998141639282
900.1553555564013 0.9999998141638795
900.156255712207 0.9999998141638307
900.1571558689127 0.9999998141637819
900.1580560265187 0.9999998141637332
900.1589561850247 0.9999998141636844
900.159856344431 0.9999998141636356
900.1607565047374 0.9999998141635869
900.161656665944 0.999999814163538
900.1625568280508 0.9999998141634892
900.1634569910575 0.9999998141634404
900.1643571549646 0.9999998141633917
900.1652573197717 0.9999998141633428
900.166157485479 0.9999998141632939
900.1670576520864 0.9999998141632452
900.1679578195943 0.9999998141631964
900.1688579880022 0.9999998141631474
900.1697581573101 0.9999998141630987
900.1706583275183 0.9999998141630498
900.1715584986268 0.9999998141630712
900.1724586706354 0.9999998141631424
900.1733588435441 0.9999998141632138
900.1742590173529 0.9999998141632851
900.1751591920622 0.9999998141633563
900.1760593676713 0.9999998141634275
900.1769595441807 0.9999998141634988
900.1778597215903 0.9999998141635701
900.1787598999 0.9999998141636414
900.17966007911 0.9999998141637124
900.1805602592201 0.9999998141637838
900.1814604402305 0.9999998141638551
900.182360622141 0.9999998141639264
900.1832608049516 0.9999998141639975
900.1841609886624 0.9999998141640688
900.1850611732734 0.9999998141641401
900.1859613587848 0.9999998141642114
900.1868615451962 0.9999998141642826
900.1877617325077 0.9999998141643538
900.1886619207195 0.9999998141644252
900.1895621098315 0.9999998141644963
900.1904622998437 0.9999998141645676
900.1913624907561 0.9999998141646388
900.1922626825685 0.9999998141647102
900.1931628752812 0.9999998141647813
900.1940630688943 0.9999998141648526
900.1949632634075 0.9999998141649239
900.1958634588207 0.9999998141649953
900.1967636551343 0.9999998141650663
900.1976638523481 0.9999998141651376
900.1985640504619 0.9999998141652089
900.199464249476 0.9999998141652802
900.2003644493906 0.9999998141653513
900.2012646502048 0.9999998141654226
900.2021648519196 0.9999998141654939
900.2030650545345 0.9999998141655652
900.2039652580496 0.9999998141656364
900.2048654624649 0.9999998141657076
900.2057656677805 0.9999998141657789
900.206665873996 0.9999998141658502
900.2075660811121 0.9999998141659214
900.2084662891282 0.999999814166013
900.2093664980446 0.9999998141661449
900.2102667078611 0.9999998141662769
900.211166918578 0.9999998141664089
900.2120671301949 0.9999998141665409
900.2129673427122 0.999999814166673
900.2138675561295 0.9999998141668051
900.2147677704475 0.9999998141669371
900.2156679856652 0.9999998141670691
900.2165682017832 0.999999814167201
900.2174684188016 0.9999998141673331
900.2183686367199 0.9999998141674651
900.2192688555386 0.999999814167597
900.2201690752576 0.9999998141677291
900.2210692958768 0.999999814167861
900.2219695173961 0.9999998141679931
900.2228697398157 0.999999814168125
900.2237699631354 0.9999998141682571
900.2246701873555 0.9999998141683892
900.2255704124758 0.9999998141685212
900.2264706384963 0.9999998141686532
900.2273708654169 0.9999998141687853
900.2282710932378 0.9999998141689173
900.229171321959 0.9999998141690494
900.2300715515805 0.9999998141691813
900.2309717821018 0.9999998141693134
900.2318720135238 0.9999998141694453
900.2327722458459 0.9999998141695774
900.2336724790683 0.9999998141697094
900.2345727131908 0.9999998141698414
900.2354729482137 0.9999998141699735
900.2363731841367 0.9999998141701056
900.2372734209599 0.9999998141702376
900.2381736586835 0.9999998141703696
900.2390738973071 0.9999998141705017
900.2399741368312 0.9999998141706338
900.2408743772554 0.9999998141707658
900.2417746185798 0.9999998141708978
900.2426748608045 0.9999998141710298
900.2435751039295 0.9999998141711619
900.2444753479547 0.9999998141712939
900.2453755928801 0.9999998141714259
900.2462758387059 0.999999814171558
900.2471760854318 0.9999998141716901
900.2480763330581 0.9999998141718223
900.2489765815844 0.9999998141719543
900.2498768310113 0.9999998141720864
900.250777081338 0.9999998141722184
900.2516773325652 0.9999998141723505
900.2525775846927 0.9999998141724825
900.2534778377203 0.9999998141726146
900.2543780916483 0.9999998141727466
900.2552783464765 0.9999998141728788
900.2561786022051 0.9999998141730106
900.2570788588337 0.9999998141731428
900.2579791163627 0.999999814173275
900.2588793747918 0.999999814173407
900.2597796341213 0.9999998141735391
900.260679894351 0.9999998141736712
900.261580155481 0.9999998141738032
900.2624804175114 0.9999998141739354
900.2633806804417 0.9999998141740674
900.2642809442725 0.9999998141741995
900.2651812090035 0.9999998141743315
900.266081474635 0.9999998141744637
900.2669817411663 0.9999998141745957
900.2678820085983 0.9999998141747277
900.2687822769304 0.9999998141748598
900.2696825461628 0.9999998141749921
900.2705828162955 0.9999998141751242
900.2714830873283 0.9999998141752562
900.2723833592615 0.9999998141753883
900.273283632095 0.9999998141755204
900.2741839058286 0.9999998141756525
900.2750841804626 0.9999998141757845
900.275984455997 0.9999998141759167
900.2768847324317 0.9999998141760488
900.2777850097663 0.9999998141761809
900.2786852880015 0.999999814176313
900.2795855671369 0.9999998141764451
900.2804858471725 0.9999998141765774
900.2813861281085 0.9999998141767094
900.2822864099447 0.9999998141768415
900.2831866926813 0.9999998141769737
900.2840869763181 0.9999998141771057
900.2849872608552 0.9999998141772378
900.2858875462927 0.9999998141773699
900.2867878326304 0.999999814177502
900.2876881198681 0.9999998141776342
900.2885884080065 0.9999998141777663
900.2894886970449 0.9999998141778984
900.2903889869838 0.9999998141780305
900.2912892778226 0.9999998141781626
900.292189569562 0.9999998141782949
900.2930898622019 0.999999814178427
900.2939901557417 0.9999998141785591
900.2948904501819 0.9999998141786912
900.2957907455225 0.9999998141788233
900.2966910417633 0.9999998141789554
900.2975913389042 0.9999998141790876
900.2984916369458 0.9999998141792198
900.2993919358875 0.9999998141793519
900.3002922357296 0.999999814179484
900.3011925364718 0.9999998141796161
900.3020928381144 0.9999998141797484
900.3029931406575 0.9999998141798806
900.3038934441007 0.9999998141800127
900.3047937484444 0.9999998141801448
900.3056940536881 0.999999814180277
900.3065943598324 0.9999998141804091
900.3074946668769 0.9999998141805412
900.3083949748217 0.9999998141806733
900.309295283667 0.9999998141808055
900.3101955934121 0.9999998141809376
900.3110959040579 0.9999998141810699
900.3119962156038 0.999999814181202
900.3128965280501 0.9999998141813341
900.3137968413969 0.9999998141814663
900.3146971556439 0.9999998141815986
900.3155974707911 0.9999998141817307
900.3164977868386 0.9999998141818629
900.3173981037866 0.9999998141819951
900.3182984216348 0.9999998141821272
900.3191987403833 0.9999998141822594
900.3200990600324 0.9999998141823915
900.3209993805816 0.9999998141825237
900.321899702031 0.9999998141826559
900.3228000243807 0.999999814182788
900.323700347631 0.9999998141829202
900.3246006717815 0.9999998141830524
900.3255009968323 0.9999998141831847
900.3264013227833 0.9999998141833168
900.3273016496348 0.999999814183449
900.3282019773867 0.9999998141835812
900.3291023060387 0.9999998141837134
900.3300026355911 0.9999998141838456
900.3309029660439 0.9999998141839778
900.331803297397 0.99999981418411
900.3327036296505 0.9999998141842421
900.3336039628042 0.9999998141843833
900.3345042968583 0.9999998141845324
900.3354046318127 0.9999998141846815
900.3363049676675 0.9999998141848307
900.3372053044228 0.9999998141849797
900.3381056420781 0.9999998141851288
900.3390059806339 0.999999814185278
900.33990632009 0.999999814185427
900.3408066604466 0.9999998141855763
900.3417070017032 0.9999998141857254
900.3426073438604 0.9999998141858744
900.343507686918 0.9999998141860235
900.3444080308757 0.9999998141861726
900.3453083757339 0.9999998141863218
900.3462087214925 0.9999998141864709
900.3471090681511 0.9999998141866199
900.3480094157104 0.9999998141867691
900.34890976417 0.9999998141869182
900.3498101135299 0.9999998141870673
900.3507104637902 0.9999998141872164
900.3516108149508 0.9999998141873655
900.3525111670116 0.9999998141875147
900.353411519973 0.9999998141876637
900.3543118738346 0.9999998141878129
900.3552122285967 0.999999814187962
900.3561125842591 0.9999998141881111
900.3570129408217 0.9999998141882603
900.3579132982849 0.9999998141884093
900.3588136566484 0.9999998141885587
900.3597140159121 0.9999998141887078
900.3606143760762 0.9999998141888569
900.3615147371407 0.999999814189006
900.3624150991056 0.9999998141891551
900.3633154619708 0.9999998141893043
900.3642158257364 0.9999998141894534
900.3651161904023 0.9999998141896024
900.3660165559686 0.9999998141897517
900.3669169224354 0.9999998141899007
900.3678172898025 0.9999998141900499
900.3687176580698 0.999999814190199
900.3696180272376 0.9999998141903481
900.370518397306 0.9999998141904988
900.3714187682745 0.9999998141906555
900.3723191401434 0.9999998141908124
900.3732195129127 0.9999998141909693
900.3741198865823 0.9999998141911263
900.3750202611524 0.9999998141912829
900.3759206366227 0.9999998141914399
900.3768210129937 0.9999998141915968
900.3777213902647 0.9999998141917535
900.3786217684362 0.9999998141919105
900.3795221475082 0.9999998141920673
900.3804225274805 0.9999998141922242
900.3813229083532 0.9999998141923809
900.3822232901261 0.9999998141925378
900.3831236727998 0.9999998141926947
900.3840240563736 0.9999998141928517
900.3849244408478 0.9999998141930083
900.3858248262225 0.9999998141931653
900.3867252124975 0.9999998141933221
900.3876255996728 0.999999814193479
900.3885259877486 0.9999998141936359
900.3894263767248 0.9999998141937927
900.3903267666016 0.9999998141939497
900.3912271573782 0.9999998141941064
900.3921275490555 0.9999998141942633
900.3930279416334 0.9999998141944202
900.3939283351115 0.9999998141945772
900.3948287294899 0.9999998141947339
900.3957291247688 0.9999998141948908
900.3966295209481 0.9999998141950476
900.3975299180277 0.9999998141952046
900.3984303160078 0.9999998141953613
900.3993307148883 0.9999998141955183
900.4002311146692 0.9999998141956753
900.4011315153505 0.999999814195832
900.4020319169321 0.9999998141959889
900.402932319414 0.9999998141961458
900.4038327227967 0.9999998141963028
900.4047331270797 0.9999998141964596
900.405633532263 0.9999998141966164
900.4065339383466 0.9999998141967733
900.4074343453307 0.9999998141969303
900.4083347532152 0.9999998141970871
900.4092351620001 0.999999814197244
900.4101355716855 0.9999998141974009
900.4110359822713 0.9999998141975578
900.4119363937574 0.9999998141977148
900.4128368061439 0.9999998141978715
900.4137372194309 0.9999998141980285
900.4146376336182 0.9999998141981853
900.4155380487061 0.9999998141983423
900.4164384646944 0.999999814198499
900.4173388815831 0.999999814198656
900.4182392993721 0.9999998141988129
900.4191397180616 0.9999998141989698
900.4200401376515 0.9999998141991266
900.4209405581418 0.9999998141992836
900.4218409795324 0.9999998141994406
900.4227414018235 0.9999998141995974
900.423641825015 0.9999998141997544
900.424542249107 0.9999998141999112
900.4254426740995 0.9999998142000682
900.4263430999921 0.999999814200225
900.4272435267856 0.9999998142003821
900.4281439544791 0.9999998142005389
900.4290443830733 0.9999998142006958
900.4299448125679 0.9999998142008526
900.4308452429628 0.9999998142010096
900.4317456742582 0.9999998142011666
900.4326461064541 0.9999998142013234
900.4335465395504 0.9999998142014804
900.4344469735471 0.9999998142016372
900.4353474084443 0.9999998142017942
900.4362478442418 0.999999814201951
900.4371482809398 0.999999814202108
900.4380487185383 0.9999998142022649
900.4389491570372 0.9999998142024219
900.4398495964364 0.9999998142025787
900.4407500367362 0.9999998142027356
900.4416504779364 0.9999998142028925
900.4425509200371 0.9999998142030496
900.4434513630382 0.9999998142032065
900.4443518069397 0.9999998142033634
900.4452522517419 0.9999998142035204
900.4461526974443 0.9999998142036772
900.4470531440471 0.9999998142038342
900.4479535915502 0.9999998142039911
900.448854039954 0.9999998142041481
900.4497544892585 0.999999814204305
900.4506549394631 0.9999998142044619
900.4515553905683 0.9999998142046188
900.4524558425738 0.9999998142047758
900.4533562954798 0.9999998142049328
900.4542567492863 0.9999998142050897
900.4551572039933 0.9999998142052466
900.4560576596007 0.9999998142054035
900.4569581161086 0.9999998142055605
900.4578585735169 0.9999998142057175
900.4587590318256 0.9999998142058744
900.4596594910348 0.9999998142060312
900.4605599511445 0.9999998142061883
900.4614604121547 0.9999998142063452
900.4623608740653 0.9999998142065021
900.4632613368763 0.9999998142066591
900.4641618005877 0.999999814206816
900.4650622651999 0.999999814206973
900.4659627307124 0.9999998142071299
900.4668631971253 0.9999998142072869
900.4677636644387 0.9999998142074439
900.4686641326526 0.9999998142076009
900.4695646017668 0.9999998142077577
900.4704650717817 0.9999998142079147
900.4713655426972 0.9999998142080716
900.4722660145127 0.9999998142082286
900.473166487229 0.9999998142083856
900.4740669608458 0.9999998142085426
900.4749674353628 0.9999998142086995
900.4758679107805 0.9999998142088565
900.4767683870987 0.9999998142090135
900.4776688643173 0.9999998142091704
900.4785693424363 0.9999998142093274
900.479469821456 0.9999998142094843
900.4803703013758 0.9999998142096413
900.4812707821965 0.9999998142097982
900.4821712639174 0.9999998142099552
900.4830717465388 0.9999998142101122
900.4839722300608 0.9999998142102692
900.4848727144832 0.999999814210426
900.4857731998062 0.9999998142105831
