Atmospheric Species: CO
Metallicity: 10000
C/O_Ratio: 1.0
Wavelength[nm] Flux_variation
999.9990867268679 0.9999999877243667
1000.0000867264545 0.9999999877245246
1000.0010867270413 0.999999987724616
1000.0020867286277 0.9999999877247072
1000.0030867312147 0.9999999877247986
1000.0040867348013 0.9999999877248898
1000.0050867393879 0.9999999877249811
1000.0060867449746 0.9999999877250725
1000.0070867515615 0.9999999877251637
1000.0080867591481 0.9999999877252551
1000.0090867677349 0.9999999877253465
1000.0100867773216 0.9999999877254379
1000.0110867879083 0.9999999877255291
1000.0120867994951 0.9999999877256205
1000.0130868120818 0.9999999877257117
1000.0140868256685 0.9999999877258031
1000.0150868402555 0.9999999877258944
1000.0160868558423 0.9999999877259856
1000.0170868724291 0.9999999877260769
1000.0180868900158 0.9999999877261684
1000.0190869086025 0.9999999877262596
1000.0200869281896 0.9999999877263509
1000.0210869487765 0.9999999877264423
1000.0220869703634 0.9999999877265336
1000.0230869929503 0.999999987726625
1000.0240870165372 0.9999999877267163
1000.0250870411243 0.9999999877268076
1000.0260870667114 0.9999999877268988
1000.0270870932983 0.9999999877269902
1000.0280871208853 0.9999999877270815
1000.0290871494724 0.9999999877271727
1000.0300871790596 0.9999999877272641
1000.0310872096469 0.9999999877273554
1000.0320872412341 0.9999999877274468
1000.0330872738213 0.9999999877275381
1000.0340873074085 0.9999999877276294
1000.035087341996 0.9999999877277208
1000.0360873775834 0.9999999877278121
1000.0370874141706 0.9999999877279033
1000.0380874517581 0.9999999877279946
1000.0390874903455 0.9999999877280858
1000.040087529933 0.9999999877281772
1000.0410875705202 0.9999999877282686
1000.0420876121078 0.9999999877283599
1000.0430876546953 0.9999999877284511
1000.0440876982829 0.9999999877285426
1000.0450877428707 0.9999999877286339
1000.0460877884583 0.9999999877287251
1000.0470878350463 0.9999999877288165
1000.0480878826341 0.9999999877289077
1000.0490879312221 0.999999987728999
1000.0500879808101 0.9999999877290904
1000.0510880313981 0.9999999877291816
1000.052088082986 0.999999987729273
1000.0530881355742 0.9999999877293643
1000.0540881891621 0.9999999877294556
1000.0550882437503 0.999999987729547
1000.0560882993386 0.9999999877296383
1000.057088355927 0.9999999877297296
1000.0580884135152 0.9999999877298209
1000.0590884721038 0.9999999877299122
1000.0600885316923 0.9999999877300034
1000.0610885922806 0.9999999877300947
1000.0620886538691 0.9999999877301861
1000.0630887164579 0.9999999877302773
1000.0640887800465 0.9999999877303688
1000.0650888446352 0.9999999877304601
1000.0660889102243 0.9999999877305514
1000.0670889768132 0.9999999877306427
1000.0680890444022 0.9999999877307341
1000.0690891129912 0.9999999877308252
1000.0700891825802 0.9999999877309166
1000.0710892531694 0.9999999877310078
1000.0720893247585 0.9999999877310992
1000.0730893973481 0.9999999877311905
1000.0740894709373 0.9999999877312817
1000.0750895455268 0.9999999877313731
1000.0760896211164 0.9999999877314645
1000.077089697706 0.9999999877315557
1000.0780897752954 0.999999987731647
1000.0790898538854 0.9999999877317384
1000.0800899334753 0.9999999877318296
1000.0810900140654 0.999999987731921
1000.0820900956553 0.9999999877320123
1000.0830901782452 0.9999999877321035
1000.0840902618355 0.9999999877321949
1000.0850903464259 0.9999999877322862
1000.0860904320161 0.9999999877323775
1000.0870905186066 0.9999999877324688
1000.0880906061968 0.9999999877325602
1000.0890906947876 0.9999999877326514
1000.0900907843783 0.9999999877327428
1000.091090874969 0.9999999877328339
1000.09209096656 0.9999999877327118
1000.0930910591511 0.9999999877324196
1000.0940911527421 0.9999999877321272
1000.0950912473332 0.9999999877318347
1000.0960913429245 0.9999999877315424
1000.0970914395157 0.9999999877312499
1000.0980915371073 0.9999999877309574
1000.0990916356989 0.999999987730665
1000.1000917352904 0.9999999877303726
1000.1010918358822 0.99999998773008
1000.1020919374741 0.9999999877298208
1000.103092040066 0.9999999877295648
1000.104092143658 0.9999999877293089
1000.1050922482502 0.999999987729053
1000.1060923538424 0.9999999877287968
1000.1070924604346 0.9999999877285409
1000.1080925680272 0.9999999877282849
1000.1090926766199 0.9999999877280288
1000.1100927862127 0.9999999877277728
1000.1110928968052 0.9999999877275169
1000.1120930083981 0.9999999877272606
1000.1130931209912 0.9999999877270046
1000.1140932345844 0.9999999877267485
1000.1150933491775 0.9999999877264922
1000.1160934647708 0.9999999877262361
1000.1170935813644 0.99999998772598
1000.1180936989581 0.9999999877257236
1000.1190938175519 0.9999999877254676
1000.1200939371456 0.9999999877252114
1000.1210940577396 0.999999987724955
1000.1220941793334 0.9999999877246988
1000.1230943019278 0.9999999877244424
1000.1240944255222 0.9999999877241861
1000.1250945501166 0.99999998772393
1000.1260946757113 0.9999999877236735
1000.1270948023059 0.9999999877234171
1000.1280949299006 0.9999999877231608
1000.1290950584957 0.9999999877229043
1000.1300951880909 0.9999999877226481
1000.1310953186861 0.9999999877223916
1000.1320954502813 0.9999999877221352
1000.1330955828766 0.9999999877218787
1000.1340957164724 0.9999999877216224
1000.1350958510682 0.9999999877213658
1000.1360959866639 0.9999999877211093
1000.1370961232601 0.9999999877208527
1000.138096260856 0.9999999877205962
1000.1390963994523 0.9999999877203397
1000.1400965390488 0.9999999877200831
1000.1410966796454 0.9999999877198265
1000.1420968212423 0.9999999877195699
1000.1430969638391 0.9999999877193133
1000.144097107436 0.9999999877190565
1000.1450972520331 0.9999999877187999
1000.1460973976305 0.9999999877185431
1000.1470975442279 0.9999999877182866
1000.1480976918256 0.9999999877180299
1000.149097840423 0.9999999877177731
1000.1500979900211 0.9999999877175163
1000.151098140619 0.9999999877172596
1000.1520982922174 0.9999999877170027
1000.1530984448154 0.999999987716746
1000.154098598414 0.9999999877164892
1000.1550987530128 0.9999999877162323
1000.1560989086115 0.9999999877159755
1000.1570990652104 0.9999999877157186
1000.1580992228096 0.9999999877154617
1000.1590993814089 0.9999999877152048
1000.1600995410081 0.999999987714948
1000.1610997016078 0.999999987714691
1000.1620998632073 0.9999999877144341
1000.1631000258074 0.999999987714177
1000.1641001894075 0.99999998771392
1000.1651003540076 0.999999987713663
1000.1661005196083 0.9999999877134059
1000.1671006862088 0.999999987713149
1000.1681008538095 0.999999987712892
1000.1691010224106 0.9999999877126348
1000.1701011920115 0.9999999877123777
1000.1711013626126 0.9999999877121207
1000.172101534214 0.9999999877118635
1000.1731017068156 0.9999999877116064
1000.1741018804173 0.9999999877113491
1000.1751020550191 0.999999987711092
1000.176102230621 0.9999999877108349
1000.1771024072235 0.9999999877105776
1000.178102584826 0.9999999877103204
1000.1791027634283 0.9999999877100632
1000.1801029430311 0.9999999877098058
1000.1811031236343 0.9999999877095486
1000.1821033052373 0.9999999877092913
1000.1831034878404 0.9999999877090339
1000.1841036714444 0.9999999877087766
1000.185103856048 0.9999999877085192
1000.186104041652 0.9999999877082618
1000.1871042282562 0.9999999877080045
1000.1881044158606 0.999999987707747
1000.1891046044649 0.9999999877074895
1000.1901047940696 0.9999999877072322
1000.1911049846746 0.9999999877069747
1000.1921051762795 0.9999999877067173
1000.1931053688846 0.9999999877064598
1000.19410556249 0.9999999877062022
1000.1951057570957 0.9999999877059448
1000.1961059527016 0.9999999877056871
1000.1971061493076 0.9999999877054295
1000.1981063469138 0.9999999877051721
1000.1991065455202 0.9999999877049144
1000.2001067451266 0.99999998770466
1000.2011069457335 0.999999987704451
1000.2021071473406 0.9999999877042416
1000.2031073499479 0.9999999877040325
1000.2041075535553 0.9999999877038234
1000.205107758163 0.9999999877036141
1000.2061079637706 0.9999999877034049
1000.2071081703787 0.9999999877031956
1000.2081083779867 0.9999999877029865
1000.2091085865953 0.9999999877027772
1000.2101087962038 0.9999999877025679
1000.2111090068129 0.9999999877023587
1000.2121092184218 0.9999999877021494
1000.2131094310312 0.99999998770194
1000.2141096446406 0.9999999877017307
1000.2151098592504 0.9999999877015213
1000.2161100748604 0.9999999877013119
1000.2171102914705 0.9999999877011025
1000.2181105090809 0.9999999877008932
1000.2191107276915 0.9999999877006838
1000.2201109473023 0.9999999877004744
1000.2211111679131 0.9999999877002648
1000.2221113895246 0.9999999877000554
1000.2231116121359 0.9999999876998459
1000.2241118357476 0.9999999876996364
1000.2251120603597 0.9999999876994269
1000.2261122859717 0.9999999876992174
1000.2271125125843 0.9999999876990078
1000.2281127401967 0.9999999876987984
1000.2291129688095 0.9999999876985887
1000.2301131984226 0.9999999876983792
1000.2311134290359 0.9999999876981696
1000.2321136606492 0.9999999876979598
1000.2331138932632 0.9999999876977502
1000.2341141268771 0.9999999876975407
1000.2351143614912 0.999999987697331
1000.2361145971057 0.9999999876971213
1000.2371148337205 0.9999999876969116
1000.2381150713354 0.999999987696702
1000.2391153099505 0.9999999876964922
1000.240115549566 0.9999999876962824
1000.2411157901815 0.9999999876960728
1000.2421160317974 0.9999999876958631
1000.2431162744135 0.9999999876956531
1000.2441165180297 0.9999999876954434
1000.2451167626463 0.9999999876952337
1000.2461170082632 0.9999999876950237
1000.2471172548803 0.999999987694814
1000.2481175024976 0.999999987694604
1000.2491177511153 0.9999999876943942
1000.250118000733 0.9999999876941844
1000.2511182513512 0.9999999876939745
1000.2521185029693 0.9999999876937645
1000.253118755588 0.9999999876935546
1000.254119009207 0.9999999876933446
1000.255119263826 0.9999999876931347
1000.2561195194453 0.9999999876929246
1000.2571197760649 0.9999999876927148
1000.2581200336847 0.9999999876925048
1000.2591202923049 0.9999999876922947
1000.2601205519254 0.9999999876920846
1000.2611208125461 0.9999999876918746
1000.2621210741669 0.9999999876916645
1000.2631213367881 0.9999999876914545
1000.2641216004095 0.9999999876912443
1000.2651218650311 0.9999999876910343
1000.2661221306531 0.9999999876908242
1000.2671223972753 0.999999987690614
1000.2681226648979 0.9999999876904039
1000.2691229335207 0.9999999876901936
1000.2701232031435 0.9999999876899835
1000.2711234737669 0.9999999876897734
1000.2721237453907 0.999999987689563
1000.2731240180144 0.9999999876893528
1000.2741242916385 0.9999999876891427
1000.2751245662629 0.9999999876889324
1000.2761248418876 0.9999999876887221
1000.2771251185125 0.9999999876885117
1000.2781253961376 0.9999999876883015
1000.2791256747632 0.9999999876880912
1000.2801259543891 0.9999999876878808
1000.2811262350151 0.9999999876876705
1000.2821265166416 0.9999999876874601
1000.2831267992681 0.9999999876872497
1000.2841270828949 0.9999999876870393
1000.2851273675221 0.999999987686829
1000.2861276531496 0.9999999876866186
1000.2871279397773 0.9999999876864082
1000.2881282274054 0.9999999876861976
1000.2891285160338 0.9999999876859872
1000.2901288056626 0.9999999876857766
1000.2911290962913 0.9999999876855662
1000.2921293879206 0.9999999876853557
1000.29312968055 0.9999999876851451
1000.2941299741797 0.9999999876849346
1000.2951302688098 0.9999999876847239
1000.2961305644403 0.9999999876845134
1000.2971308610711 0.9999999876843028
1000.298131158702 0.9999999876840923
1000.299131457333 0.9999999876838817
1000.3001317569648 0.9999999876836708
1000.3011320575966 0.9999999876834602
1000.3021323592287 0.9999999876832678
1000.3031326618612 0.999999987683081
1000.304132965494 0.9999999876828941
1000.3051332701272 0.9999999876827071
1000.3061335757607 0.9999999876825202
1000.3071338823943 0.9999999876823333
1000.3081341900283 0.9999999876821464
1000.3091344986627 0.9999999876819594
1000.3101348082973 0.9999999876817723
1000.3111351189324 0.9999999876815855
1000.3121354305675 0.9999999876813984
1000.3131357432031 0.9999999876812115
1000.3141360568391 0.9999999876810243
1000.3151363714751 0.9999999876808373
1000.3161366871118 0.9999999876806501
1000.3171370037486 0.9999999876804633
1000.3181373213856 0.9999999876802761
1000.3191376400231 0.999999987680089
1000.320137959661 0.9999999876799018
1000.3211382802991 0.9999999876797148
1000.3221386019376 0.9999999876795276
1000.3231389245761 0.9999999876793403
1000.3241392482154 0.9999999876791532
1000.3251395728545 0.999999987678966
1000.3261398984943 0.9999999876787788
1000.3271402251344 0.9999999876785917
1000.3281405527748 0.9999999876784044
1000.3291408814154 0.9999999876782172
1000.3301412110563 0.9999999876780299
1000.3311415416975 0.9999999876778426
1000.3321418733395 0.9999999876776553
1000.3331422059815 0.999999987677468
1000.3341425396235 0.9999999876772807
1000.3351428742664 0.9999999876770933
1000.3361432099094 0.999999987676906
1000.3371435465527 0.9999999876767187
1000.3381438841965 0.9999999876765313
1000.3391442228403 0.9999999876763439
1000.3401445624847 0.9999999876761565
1000.3411449031296 0.9999999876759691
1000.3421452447743 0.9999999876757817
1000.3431455874198 0.9999999876755942
1000.3441459310656 0.9999999876754067
1000.3451462757116 0.9999999876752192
1000.3461466213582 0.9999999876750317
1000.3471469680048 0.9999999876748441
1000.3481473156519 0.9999999876746568
1000.3491476642994 0.9999999876744692
1000.3501480139473 0.9999999876742817
1000.3511483645954 0.9999999876740941
1000.3521487162437 0.9999999876739065
1000.3531490688927 0.9999999876737189
1000.3541494225418 0.9999999876735313
1000.3551497771913 0.9999999876733436
1000.3561501328413 0.999999987673156
1000.3571504894916 0.9999999876729684
1000.3581508471422 0.9999999876727808
1000.3591512057932 0.9999999876725931
1000.3601515654447 0.9999999876724054
1000.3611519260962 0.9999999876722178
1000.3621522877484 0.99999998767203
1000.3631526504007 0.9999999876718423
1000.3641530140533 0.9999999876716544
1000.3651533787065 0.9999999876714667
1000.3661537443601 0.999999987671279
1000.3671541110142 0.9999999876710911
1000.3681544786683 0.9999999876709034
1000.3691548473229 0.9999999876707155
1000.3701552169779 0.9999999876705277
1000.3711555876331 0.9999999876703399
1000.372155959289 0.9999999876701521
1000.3731563319452 0.9999999876699641
1000.3741567056016 0.9999999876697764
1000.3751570802583 0.9999999876695884
1000.3761574559159 0.9999999876694005
1000.3771578325733 0.9999999876692125
1000.3781582102313 0.9999999876690245
1000.3791585888897 0.9999999876688367
1000.3801589685486 0.9999999876686486
1000.3811593492076 0.9999999876684605
1000.3821597308672 0.9999999876682726
1000.3831601135271 0.9999999876680846
1000.3841604971875 0.9999999876678967
1000.385160881848 0.9999999876677086
1000.3861612675092 0.9999999876675206
1000.3871616541704 0.9999999876673324
1000.3881620418323 0.9999999876671444
1000.3891624304945 0.9999999876669562
1000.3901628201571 0.9999999876667681
1000.39116321082 0.99999998766658
1000.3921636024834 0.9999999876663919
1000.3931639951471 0.9999999876662037
1000.3941643888114 0.9999999876660155
1000.3951647834758 0.9999999876658273
1000.3961651791407 0.9999999876656391
1000.3971655758062 0.999999987665451
1000.3981659734719 0.9999999876652628
1000.3991663721378 0.9999999876650745
1000.4001667718045 0.9999999876648865
1000.4011671724716 0.9999999876647336
1000.4021675741387 0.9999999876645806
1000.4031679768065 0.9999999876644278
1000.4041683804746 0.9999999876642749
1000.4051687851431 0.9999999876641219
1000.4061691908121 0.999999987663969
1000.4071695974815 0.999999987663816
1000.4081700051511 0.9999999876636629
1000.4091704138214 0.9999999876635102
1000.410170823492 0.9999999876633572
1000.4111712341629 0.9999999876632041
1000.4121716458344 0.9999999876630512
1000.4131720585063 0.999999987662898
1000.4141724721785 0.999999987662745
1000.4151728868513 0.999999987662592
1000.4161733025242 0.9999999876624389
1000.4171737191976 0.9999999876622859
1000.4181741368717 0.9999999876621327
1000.4191745555461 0.9999999876619796
1000.4201749752206 0.9999999876618265
1000.4211753958958 0.9999999876616734
1000.4221758175713 0.9999999876615202
1000.4231762402471 0.9999999876613671
1000.4241766639237 0.9999999876612139
1000.4251770886004 0.9999999876610608
1000.4261775142776 0.9999999876609075
1000.4271779409554 0.9999999876607544
1000.4281783686337 0.9999999876606012
1000.4291787973121 0.9999999876604478
1000.4301792269913 0.9999999876602946
1000.4311796576706 0.9999999876601414
1000.4321800893504 0.9999999876599881
1000.4331805220305 0.9999999876598349
1000.4341809557111 0.9999999876596815
1000.4351813903924 0.9999999876595282
1000.436181826074 0.9999999876593748
1000.437182262756 0.9999999876592215
1000.4381827004385 0.9999999876590682
1000.4391831391212 0.9999999876589148
1000.4401835788046 0.9999999876587614
1000.4411840194883 0.9999999876586081
1000.4421844611727 0.9999999876584547
1000.4431849038573 0.9999999876583013
1000.4441853475425 0.9999999876581478
1000.4451857922281 0.9999999876579944
1000.4461862379142 0.9999999876578409
1000.4471866846006 0.9999999876576875
1000.4481871322876 0.9999999876575341
1000.449187580975 0.9999999876573805
1000.4501880306628 0.999999987657227
1000.4511884813512 0.9999999876570735
1000.4521889330398 0.99999998765692
1000.4531893857289 0.9999999876567665
1000.4541898394186 0.9999999876566128
1000.4551902941087 0.9999999876564594
1000.4561907497991 0.9999999876563057
1000.4571912064902 0.9999999876561522
1000.4581916641815 0.9999999876559985
1000.4591921228734 0.9999999876558449
1000.4601925825657 0.9999999876556913
1000.4611930432583 0.9999999876555377
1000.4621935049518 0.999999987655384
1000.4631939676453 0.9999999876552303
1000.4641944313394 0.9999999876550766
1000.4651948960341 0.9999999876549229
1000.4661953617292 0.9999999876547692
1000.4671958284248 0.9999999876546156
1000.4681962961208 0.9999999876544619
1000.4691967648173 0.999999987654308
1000.4701972345143 0.9999999876541542
1000.4711977052117 0.9999999876540006
1000.4721981769096 0.9999999876538468
1000.473198649608 0.9999999876536929
1000.474199123307 0.9999999876535391
1000.4751995980062 0.9999999876533853
1000.4762000737059 0.9999999876532315
1000.4772005504062 0.9999999876530776
1000.4782010281068 0.9999999876529239
1000.4792015068081 0.9999999876527699
1000.4802019865099 0.999999987652616
1000.4812024672121 0.9999999876524621
1000.4822029489148 0.9999999876523082
1000.4832034316181 0.9999999876521543
1000.4842039153217 0.9999999876520003
1000.4852044000259 0.9999999876518464
1000.4862048857303 0.9999999876516924
1000.4872053724354 0.9999999876515385
1000.4882058601407 0.9999999876513844
1000.489206348847 0.9999999876512304
1000.4902068385535 0.9999999876510764
1000.4912073292606 0.9999999876509225
1000.4922078209681 0.9999999876507685
1000.4932083136761 0.9999999876506143
1000.4942088073846 0.9999999876504603
1000.4952093020935 0.9999999876503062
1000.496209797803 0.9999999876501522
1000.4972102945131 0.9999999876499981
1000.4982107922236 0.9999999876498438
1000.4992112909346 0.9999999876496898
1000.5002117906462 0.9999999876495356
1000.5012122913581 0.9999999876493816
1000.5022127930706 0.9999999876492319
1000.5032132957836 0.9999999876490856
1000.5042137994972 0.999999987648939
1000.5052143042112 0.9999999876487926
1000.5062148099256 0.9999999876486463
1000.5072153166407 0.9999999876484998
1000.5082158243563 0.9999999876483534
1000.5092163330723 0.999999987648207
1000.5102168427889 0.9999999876480604
1000.5112173535059 0.999999987647914
1000.5122178652234 0.9999999876477677
1000.5132183779415 0.9999999876476211
1000.5142188916603 0.9999999876474746
1000.5152194063793 0.9999999876473281
1000.5162199220989 0.9999999876471816
1000.5172204388191 0.9999999876470349
1000.5182209565398 0.9999999876468885
1000.5192214752609 0.9999999876467419
1000.5202219949825 0.9999999876465954
1000.5212225157047 0.9999999876464487
1000.5222230374275 0.999999987646302
1000.5232235601508 0.9999999876461554
1000.5242240838744 0.9999999876460088
