Atmospheric Species: CO
Metallicity: 10000
C/O_Ratio: 0.5
Wavelength[nm] Flux_variation
1599.9991319407557 0.9999993362868271
1600.0007319406875 0.9999992307185432
1600.0023319422194 0.9999991101720553
1600.003931945351 0.9999989698936511
1600.005531950083 0.9999988004090768
1600.0071319564147 0.9999985791858095
1600.0087319643467 0.9999982539792441
1600.0103319738785 0.9999977308253438
1600.0119319850105 0.9999969197354106
1600.0135319977423 0.9999959130484863
1600.0151320120742 0.9999950354744777
1600.0167320280061 0.9999945141565625
1600.018332045538 0.9999943825370274
1600.01993206467 0.999994602628316
1600.021532085402 0.9999950541858007
1600.023132107734 0.9999953828257876
1600.024732131666 0.9999949923049906
1600.0263321571979 0.9999934204678067
1600.02793218433 0.9999907659488573
1600.0295322130619 0.9999879176171359
1600.0311322433943 0.9999854831382904
1600.0327322753265 0.9999840777461145
1600.034332308859 0.9999843568166902
1600.0359323439911 0.9999861792535657
1600.0375323807234 0.9999887816185911
1600.039132419056 0.9999916725348874
1600.0407324589883 0.9999940709856896
1600.0423325005206 0.9999954812233649
1600.043932543653 0.9999962192534959
1600.0455325883854 0.999996625686954
1600.047132634718 0.99999685744976
1600.0487326826508 0.9999969776437794
1600.0503327321835 0.9999970168107066
1600.0519327833163 0.9999969922696721
1600.0535328360488 0.9999969140180587
1600.0551328903816 0.9999967872682496
1600.0567329463145 0.9999966141979937
1600.0583330038473 0.999996395021337
1600.0599330629805 0.999996126065116
1600.0615331237134 0.9999957926450386
1600.0631331860466 0.9999953514603231
1600.0647332499796 0.9999946991622239
1600.066333315513 0.9999937318128358
1600.0679333826463 0.99999252134521
1600.0695334513798 0.9999911278555184
1600.0711335217131 0.9999897430609295
1600.0727335936465 0.9999888316494818
1600.0743336671803 0.9999885693495639
1600.075933742314 0.9999889698702176
1600.0775338190476 0.9999900067795617
1600.0791338973813 0.9999914346659842
1600.0807339773153 0.9999927956928469
1600.0823340588493 0.9999939763881869
1600.0839341419833 0.9999948965733834
1600.0855342267173 0.9999955201226662
1600.0871343130518 0.9999959663248841
1600.0887344009861 0.9999963245282878
1600.0903344905205 0.9999966300317177
1600.0919345816546 0.9999968976049649
1600.0935346743893 0.9999971354076537
1600.095134768724 0.9999973489421986
1600.0967348646586 0.9999975421181102
1600.0983349621936 0.9999977180314868
1600.0999350613286 0.9999978790700249
1600.1015351620636 0.9999980271444988
1600.1031352643988 0.9999981638164656
1600.104735368334 0.999998290374117
1600.1063354738692 0.9999984078943818
1600.1079355810048 0.9999985172826721
1600.1095356897404 0.9999986193140975
1600.111135800076 0.9999987146504363
1600.1127359120119 0.9999988038653844
1600.1143360255478 0.9999988874589845
1600.115936140684 0.9999989658698428
1600.11753625742 0.9999990394832271
1600.1191363757562 0.9999991086424443
1600.1207364956927 0.9999991736543662
1600.1223366172292 0.9999992347910204
1600.123936740366 0.9999992923015365
1600.1255368651025 0.9999993464058778
1600.1271369914393 0.9999993973262399
1600.1287371193764 0.9999994452082366
1600.1303372489135 0.9999994902407889
1600.1319373800509 0.9999995325780289
1600.1335375127883 0.9999995723751499
1600.135137647126 0.9999996097345545
1600.1367377830636 0.9999996447923519
1600.138337920601 0.9999996776720483
1600.139938059739 0.9999997084523286
1600.141538200477 0.999999737242443
1600.1431383428153 0.9999997641351469
1600.1447384867536 0.9999997892073341
1600.146338632292 0.9999998125406513
1600.1479387794307 0.9999998342076746
1600.1495389281695 0.9999998542763864
1600.1511390785083 0.999999872810996
1600.1527392304474 0.9999998898710968
1600.1543393839866 0.9999999055125924
1600.155939539126 0.9999999197885541
1600.1575396958654 0.9999999327479705
1600.159139854205 0.9999999444375952
1600.1607400141452 0.9999999549009206
1600.1623401756851 0.9999999641792449
1600.1639403388253 0.9999999723104426
1600.1655405035656 0.9999999793316668
1600.1671406699063 0.9999999852760485
1600.1687408378468 0.9999999901763253
1600.1703410073876 0.9999999940622376
1600.1719411785289 0.9999999969619642
1600.17354135127 0.9999999989016846
1600.1751415256115 0.9999999999068548
1600.1767417015528 1.0
1600.1783418790947 0.9999999992030528
1600.1799420582367 0.9999999975361806
1600.1815422389786 0.9999999950180056
1600.183142421321 0.999999991666454
1600.1847426052634 0.9999999874972169
1600.186342790806 0.9999999825253986
1600.187942977949 0.9999999767642737
1600.1895431666917 0.9999999702271574
1600.191143357035 0.9999999629242
1600.1927435489783 0.9999999548668188
1600.1943437425218 0.9999999460634051
1600.1959439376658 0.9999999365220558
1600.1975441344098 0.9999999262494925
1600.1991443327538 0.9999999152516678
1600.200744532698 0.9999999035335253
1600.2023447342428 0.9999998910983025
1600.2039449373876 0.9999998779487294
1600.2055451421327 0.9999998640863853
1600.2071453484778 0.9999998495095623
1600.2087455564233 0.9999998342221587
1600.2103457659687 0.9999998182196747
1600.2119459771145 0.9999998014987391
1600.2135461898606 0.9999997840548719
1600.215146404207 0.9999997658826448
1600.2167466201533 0.9999997469749732
1600.2183468377 0.9999997273238553
1600.2199470568469 0.9999997069192491
1600.221547277594 0.9999996857499672
1600.2231474999412 0.999999663803009
1600.2247477238886 0.9999996410642847
1600.2263479494366 0.9999996175168832
1600.2279481765845 0.999999593142794
1600.229548405333 0.9999995679218647
1600.2311486356812 0.999999541831258
1600.2327488676299 0.9999995148464973
1600.2343491011789 0.9999994869401346
1600.235949336328 0.9999994580814838
1600.2375495730776 0.9999994282386562
1600.2391498114273 0.9999993973742252
1600.240750051377 0.9999993654490105
1600.242350292927 0.9999993324191225
1600.2439505360774 0.9999992982368763
1600.245550780828 0.9999992628496981
1600.247151027179 0.9999992262002056
1600.2487512751302 0.9999991882257874
1600.2503515246815 0.999999148856951
1600.251951775833 0.9999991080183486
1600.2535520285849 0.9999990656258124
1600.255152282937 0.9999990215885914
1600.2567525388893 0.9999989758060053
1600.2583527964418 0.9999989281660551
1600.2599530555947 0.9999988785469502
1600.2615533163478 0.9999988268141892
1600.2631535787013 0.9999987728154985
1600.264753842655 0.9999987163885196
1600.266354108209 0.9999986573475333
1600.2679543753634 0.9999985954733607
1600.2695546441178 0.9999985305676754
1600.2711549144724 0.9999984623626325
1600.272755186427 0.9999983905585059
1600.2743554599824 0.9999983148688693
1600.2759557351378 0.9999982349078642
1600.2775560118935 0.9999981503082536
1600.2791562902496 0.9999980606044757
1600.2807565702058 0.9999979652897311
1600.2823568517624 0.9999978637877094
1600.2839571349193 0.9999977554532381
1600.2855574196763 0.9999976395468727
1600.287157706034 0.9999975152267467
1600.2887579939916 0.9999973815338008
1600.2903582835495 0.9999972373689341
1600.2919585747077 0.9999970814709103
1600.2935588674663 0.999996912387007
1600.295159161825 0.9999967284379331
1600.2967594577842 0.9999965276746288
1600.2983597553439 0.9999963078213235
1600.2999600545038 0.9999960662105184
1600.3015603552642 0.9999957996875939
1600.3031606576246 0.9999955044822106
1600.3047609615853 0.9999951760026823
1600.3063612671465 0.9999948086703935
1600.307961574308 0.9999943952644106
1600.3095618830696 0.9999939264036917
1600.3111621934315 0.9999933878804044
1600.3127625053937 0.9999927519185376
1600.3143628189562 0.999991933096275
1600.315963134119 0.9999906256019244
1600.3175634508825 0.9999883377610665
1600.3191637692462 0.9999848352302402
1600.3207640892101 0.9999805403301222
1600.3223644107743 0.9999775499072993
1600.3239647339387 0.9999767545353534
1600.3255650587034 0.9999781333905262
1600.3271653850686 0.9999816408740779
1600.3287657130343 0.999985889712497
1600.3303660426002 0.9999890259693572
1600.3319663737664 0.9999910100357758
1600.3335667065328 0.9999921408501368
1600.3351670408995 0.9999928926058498
1600.3367673768666 0.9999934841668041
1600.3383677144343 0.9999939783752172
1600.339968053602 0.999994398814865
1600.3415683943701 0.9999947577525816
1600.3431687367386 0.9999950622435465
1600.3447690807075 0.9999953143136635
1600.3463694262766 0.999995503256596
1600.3479697734463 0.9999955850517543
1600.349570122216 0.9999954714120995
1600.3511704725863 0.9999951199749055
1600.352770824557 0.9999946756117515
1600.3543711781278 0.99999436839208
1600.355971533299 0.9999943308073647
1600.3575718900709 0.9999945970659472
1600.3591722484427 0.9999951211761234
1600.3607726084151 0.9999957332810319
1600.362372969988 0.999996205238667
1600.363973333161 0.9999964632530902
1600.3655736979347 0.9999965811952594
1600.3671740643083 0.9999966351434197
1600.3687744322826 0.9999966606951941
1600.370374801857 0.9999966703157634
1600.3719751730318 0.9999966684718292
1600.3735755458074 0.9999966571906235
1600.375175920183 0.9999966375616838
1600.3767762961588 0.9999966102473679
1600.3783766737354 0.9999965756131483
1600.3799770529122 0.9999965337996746
1600.3815774336892 0.9999964847573413
1600.3831778160668 0.9999964282221409
1600.3847782000448 0.9999963636869366
1600.3863785856233 0.9999962901380566
1600.3879789728019 0.9999962053937202
1600.389579361581 0.9999961052104698
1600.3911797519606 0.9999959844625889
1600.3927801439404 0.9999958432049889
1600.3943805375209 0.9999956915847105
1600.3959809327016 0.9999955395554047
1600.3975813294826 0.9999953791647572
1600.399181727864 0.99999518513981
1600.4007821278458 0.999994927867548
1600.4023825294282 0.9999945601622173
1600.403982932611 0.9999939780425358
1600.405583337394 0.9999930850974046
1600.4071837437775 0.9999919100110699
1600.4087841517612 0.999990494009166
1600.4103845613456 0.9999892138870738
1600.4119849725303 0.9999884922195469
1600.4135853853154 0.9999884210905936
1600.4151857997008 0.9999890035910446
1600.4167862156867 0.999990181725183
1600.418386633273 0.9999916055414413
1600.4199870524599 0.9999928151809298
1600.421587473247 0.9999937265415407
1600.4231878956346 0.9999943086152926
1600.4247883196226 0.9999946465491306
1600.4263887452112 0.9999948616694991
1600.4279891723997 0.9999950120542731
1600.4295896011893 0.9999951202050307
1600.431190031579 0.9999951971971676
1600.4327904635693 0.9999952499725685
1600.43439089716 0.9999952834183881
1600.435991332351 0.9999953011184263
1600.4375917691425 0.9999953058071729
1600.4391922075345 0.9999952511083554
1600.4407926475267 0.9999951801443437
1600.4423930891194 0.9999951026425922
1600.4439935323126 0.9999950197948404
1600.4455939771065 0.999994933324264
1600.4471944235006 0.9999948445769057
1600.448794871495 0.9999947530999705
1600.4503953210901 0.9999946563760257
1600.4519957722855 0.9999945512844719
1600.4535962250816 0.9999944381121529
1600.4551966794777 0.9999943250765899
1600.4567971354745 0.9999942233178203
1600.458397593072 0.9999941335744544
1600.4599980522696 0.9999940453799504
1600.4615985130679 0.9999939504059895
1600.4631989754666 0.9999938484136446
1600.4647994394659 0.9999937423402577
1600.4663999050654 0.9999936341702199
1600.4680003722656 0.9999935246310291
1600.469600841066 0.999993413906385
1600.471201311467 0.9999933020306472
1600.4728017834686 0.9999931889872528
1600.4744022570706 0.9999930747462593
1600.476002732273 0.999992959264697
1600.4776032090758 0.9999928424887965
1600.4792036874794 0.9999927243554344
1600.480804167483 0.9999926047926826
1600.4824046490874 0.9999924837178992
1600.4840051322924 0.9999923610399412
1600.4856056170975 0.9999922366576346
1600.4872061035032 0.9999921104566986
1600.4888065915095 0.9999919822968358
1600.4904070811165 0.9999918520851843
1600.4920075723237 0.9999917196977937
1600.4936080651314 0.9999915851453561
1600.4952085595396 0.9999914488242835
1600.4968090555485 0.9999913118738977
1600.498409553158 0.9999911763700868
1600.5000100523673 0.9999910426800002
1600.5016105531777 0.9999909027195131
1600.5032110555883 0.9999907524295577
1600.5048115595996 0.9999905713923728
1600.5064120652114 0.9999903515422891
1600.5080125724237 0.9999900389845371
1600.5096130812365 0.9999893529817827
1600.5112135916497 0.9999877366740382
1600.5128141036635 0.9999853452388866
1600.514414617278 0.9999831424028066
1600.5160151324926 0.9999822228726576
1600.517615649308 0.9999830751449502
1600.519216167724 0.9999851971030854
1600.52081668774 0.9999873226657209
1600.522417209357 0.9999883266727598
1600.5240177325743 0.9999884235330722
1600.5256182573921 0.9999882650049868
1600.5272187838107 0.9999880528051052
1600.5288193118297 0.999987816460637
1600.5304198414494 0.9999875582709092
1600.5320203726694 0.9999872748060051
1600.5336209054901 0.9999869576244239
1600.535221439911 0.9999865806653817
1600.5368219759328 0.99998598724673
1600.538422513555 0.9999843196099949
1600.5400230527775 0.9999796212007063
1600.5416235936007 0.999973390149627
1600.5432241360245 0.9999693139139816
1600.5448246800486 0.9999670663526722
1600.5464252256736 0.9999665414541155
1600.5480257728989 0.999967744099473
1600.5496263217249 0.9999706723899047
1600.5512268721513 0.9999756501496986
1600.5528274241785 0.9999818985199882
1600.5544279778062 0.9999851762217826
1600.5560285330344 0.9999862159388765
1600.557629089863 0.9999866719777161
1600.5592296482923 0.9999870103873839
1600.5608302083222 0.9999873049152511
1600.5624307699525 0.9999875714912146
1600.5640313331835 0.9999878174277318
1600.565631898015 0.9999880472371199
1600.567232464447 0.9999882639673333
1600.5688330324797 0.9999884697705678
1600.5704336021129 0.9999886662185579
1600.5720341733465 0.9999888544428188
1600.5736347461807 0.9999890351212942
1600.5752353206158 0.9999892089966607
1600.5768358966516 0.999989376678057
1600.5784364742876 0.999989538671626
1600.5800370535244 0.9999896954077563
1600.5816376343616 0.9999898472541577
1600.5832382167996 0.9999899945343834
1600.584838800838 0.9999901375281551
1600.586439386477 0.9999902764838094
1600.5880399737164 0.9999904116264191
1600.5896405625567 0.9999905431635056
1600.5912411529978 0.999990671252912
1600.592841745039 0.9999907960683481
1600.5944423386811 0.9999909177541833
1600.5960429339236 0.9999910365014576
1600.5976435307668 0.9999911523204693
1600.5992441292105 0.9999912653567398
1600.600844729255 0.9999913757187988
1600.6024453309 0.9999914834915594
1600.6040459341457 0.9999915887643276
1600.6056465389918 0.9999916915605661
1600.6072471454384 0.9999917919426764
1600.6088477534856 0.9999918899363139
1600.6104483631339 0.9999919855458949
1600.6120489743823 0.9999920787448069
1600.6136495872315 0.9999921694618853
1600.6152502016814 0.9999922575656418
1600.6168508177318 0.9999923428238933
1600.6184514353831 0.9999924248461024
1600.6200520546347 0.999992502962829
1600.621652675487 0.9999925759810592
1600.62325329794 0.999992641584321
1600.6248539219935 0.9999926944182707
1600.6264545476477 0.9999927177835228
1600.6280551749023 0.9999926443092737
1600.629655803758 0.9999922269076996
1600.631256434214 0.9999909811320579
1600.6328570662706 0.9999889729055431
1600.634457699928 0.9999873337278914
1600.636058335186 0.9999869262034222
1600.6376589720444 0.9999879215318143
1600.6392596105036 0.9999899328570243
1600.6408602505635 0.9999918822671668
1600.642460892224 0.999992940340186
1600.644061535485 0.9999933546436606
1600.645662180347 0.9999935366855154
1600.6472628268093 0.9999936506132862
1600.6488634748723 0.9999937406827175
1600.6504641245363 0.9999938192871365
1600.6520647758005 0.9999938909857077
1600.6536654286656 0.9999939579421132
1600.6552660831312 0.9999940213499036
1600.6568667391975 0.9999940819292217
1600.6584673968646 0.9999941401392443
1600.6600680561323 0.9999941962854555
1600.6616687170006 0.999994250576938
1600.6632693794695 0.9999943031578855
1600.6648700435392 0.9999943541246734
1600.6664707092095 0.9999944035276331
1600.6680713764806 0.9999944513407664
1600.6696720453522 0.999994497406661
1600.6712727158244 0.9999945414371987
1600.6728733878974 0.9999945832826311
1600.6744740615711 0.9999946234443121
1600.6760747368455 0.9999946631285318
1600.6776754137206 0.9999947032668463
1600.6792760921962 0.9999947435292463
1600.6808767722728 0.9999947827045232
1600.6824774539498 0.999994819873645
1600.6840781372273 0.9999948548837044
1600.6856788221057 0.9999948879795506
1600.6872795085849 0.9999949193892936
1600.6888801966645 0.999994949213637
1600.6904808863449 0.9999949774637559
1600.6920815776261 0.9999950041066088
1600.693682270508 0.9999950290893568
1600.6952829649904 0.9999950523399989
1600.6968836610738 0.9999950737677799
1600.6984843587577 0.999995093255842
1600.7000850580425 0.999995110651493
1600.7016857589279 0.9999951257465436
1600.7032864614139 0.9999951382523523
1600.7048871655006 0.9999951477450395
1600.7064878711883 0.999995153565758
1600.7080885784762 0.9999951545745555
1600.709689287365 0.9999951483950356
1600.7112899978547 0.9999951287027153
1600.712890709945 0.9999950764188822
1600.714491423636 0.9999949416054257
1600.7160921389277 0.9999946412019005
1600.7176928558201 0.9999941455467283
1600.7192935743133 0.9999935986092963
1600.7208942944071 0.999993216896273
1600.7224950161017 0.9999930986957508
1600.724095739397 0.9999931857445075
1600.725696464293 0.9999932977780451
1600.7272971907898 0.9999933352304582
1600.7288979188872 0.9999934722326254
1600.7304986485856 0.9999938639761687
1600.7320993798846 0.9999943721750356
1600.7337001127844 0.99999475329511
1600.7353008472849 0.9999949340263103
1600.736901583386 0.9999949876360368
1600.738502321088 0.9999949879821983
1600.7401030603905 0.9999949679158296
1600.741703801294 0.9999949377621362
1600.743304543798 0.9999949004935211
1600.744905287903 0.9999948570366111
1600.7465060336087 0.9999948076426408
1600.748106780915 0.9999947522398804
1600.749707529822 0.9999946905413938
1600.7513082803298 0.9999946220747477
1600.7529090324385 0.9999945461841779
1600.7545097861478 0.9999944620016493
1600.756110541458 0.9999943683976633
1600.7577112983688 0.9999942639013478
1600.7593120568806 0.9999941465565908
1600.760912816993 0.9999940137773511
1600.7625135787061 0.9999938619548844
1600.76411434202 0.9999936858620684
1600.7657151069347 0.9999934771493146
1600.7673158734501 0.9999932194124461
1600.7689166415662 0.9999928708154059
1600.7705174112832 0.9999923304216933
1600.772118182601 0.9999914812439518
1600.7737189555196 0.9999903171514798
1600.7753197300387 0.9999888714066214
1600.7769205061588 0.9999875330153676
1600.7785212838796 0.9999867492242891
1600.7801220632014 0.9999866161654283
1600.7817228441238 0.9999871396669892
1600.7833236266472 0.9999882783526047
1600.7849244107708 0.9999897332334324
1600.7865251964956 0.9999909686280987
1600.7881259838211 0.99999182942798
1600.7897267727474 0.9999923113493682
1600.7913275632745 0.9999925285259612
1600.7929283554026 0.9999926126166947
1600.7945291491314 0.9999926234889426
1600.7961299444607 0.999992584474677
1600.797730741391 0.9999925072436782
1600.799331539922 0.9999923988707521
1600.8009323400538 0.9999922638890854
1600.8025331417864 0.9999921051140007
1600.80413394512 0.9999919240996709
1600.8057347500542 0.9999917213777199
1600.8073355565894 0.9999914965576576
1600.8089363647252 0.9999912483814202
1600.810537174462 0.9999909744847582
1600.8121379857996 0.9999906712337244
1600.813738798738 0.999990332771122
1600.8153396132773 0.9999899487796667
1600.8169404294174 0.9999894935072979
1600.8185412471582 0.9999888608597963
1600.8201420665 0.999987677596463
1600.8217428874425 0.9999856312247876
1600.823343709986 0.9999827732939922
1600.82494453413 0.9999794622821075
1600.8265453598751 0.999977109516242
1600.828146187221 0.9999765938644897
1600.8297470161676 0.9999780149887774
1600.831347846715 0.9999810011263797
1600.8329486788634 0.9999842256162847
1600.8345495126125 0.9999866956751923
1600.8361503479625 0.9999883396042136
1600.8377511849133 0.9999891985039293
1600.839352023465 0.9999897244206072
1600.8409528636175 0.9999901437015354
1600.8425537053706 0.9999905088362254
1600.8441545487249 0.9999908359829894
