Atmospheric Species: CO
Metallicity: 100
C/O_Ratio: 1.0
Wavelength[nm] Flux_variation
2399.998438414741 1.0
2400.0008384143794 0.9999999950260935
2400.0032384164174 0.9999999899873684
2400.005638420856 0.9999999848826497
2400.008038427694 0.999999979710904
2400.0104384369324 0.9999999744704896
2400.0128384485706 0.9999999691605281
2400.015238462609 0.9999999637793904
2400.0176384790475 0.9999999583260442
2400.0200384978857 0.9999999527987354
2400.022438519124 0.999999947196221
2400.0248385427626 0.9999999415171597
2400.0272385688013 0.9999999357596727
2400.0296385972397 0.9999999299222382
2400.032038628078 0.9999999240035171
2400.0344386613165 0.9999999180014658
2400.0368386969553 0.9999999119144992
2400.039238734994 0.9999999057407093
2400.041638775433 0.9999998994782895
2400.044038818271 0.9999998931250399
2400.04643886351 0.9999998866792301
2400.048838911149 0.9999998801386543
2400.0512389611877 0.9999998735010102
2400.0536390136267 0.9999998667642075
2400.0560390684655 0.9999998599256721
2400.0584391257044 0.9999998529831114
2400.060839185344 0.9999998459338384
2400.0632392473826 0.9999998387751634
2400.065639311822 0.9999998315042242
2400.068039378661 0.9999998241184036
2400.0704394479008 0.9999998166142674
2400.0728395195397 0.9999998089888108
2400.075239593579 0.9999998012385575
2400.077639670019 0.9999997933600305
2400.080039748859 0.9999997853494169
2400.0824398300983 0.9999997772028287
2400.084839913738 0.9999997689161455
2400.087239999778 0.9999997604851303
2400.089640088218 0.9999997519049088
2400.0920401790577 0.9999997431708189
2400.094440272298 0.9999997342773786
2400.0968403679385 0.9999997252192881
2400.0992404659787 0.9999997159904399
2400.101640566419 0.9999997065848267
2400.1040406692596 0.9999996969952907
2400.1064407745002 0.9999996872148609
2400.108840882141 0.9999996772357305
2400.1112409921816 0.9999996670491643
2400.1136411046227 0.9999996566462881
2400.1160412194636 0.9999996460170831
2400.118441336705 0.9999996351507773
2400.120841456346 0.9999996240353488
2400.123241578388 0.9999996126579812
2400.1256417028294 0.9999996010044689
2400.128041829671 0.9999995890588699
2400.130441958913 0.9999995768034866
2400.1328420905547 0.9999995642180858
2400.135242224597 0.9999995512820815
2400.1376423610386 0.9999995379701334
2400.140042499881 0.9999995242538632
2400.1424426411236 0.9999995101016319
2400.1448427847663 0.9999994954748064
2400.1472429308087 0.9999994803343103
2400.1496430792517 0.999999464630025
2400.152043230095 0.9999994483040194
2400.154443383338 0.9999994312892685
2400.1568435389813 0.9999994135053112
2400.159243697025 0.9999993948563922
2400.1616438574683 0.999999375226729
2400.1640440203123 0.9999993544748245
2400.1664441855564 0.999999332426697
2400.1688443532003 0.9999993088650811
2400.1712445232447 0.9999992835162616
2400.173644695689 0.999999256029453
2400.1760448705336 0.9999992259503178
2400.1784450477785 0.9999991926783524
2400.1808452274236 0.9999991554063672
2400.1832454094692 0.9999991130258015
2400.1856455939146 0.9999990639781524
2400.18804578076 0.999999006001508
2400.190445970006 0.9999989357221132
2400.1928461616517 0.999998847828456
2400.1952463556977 0.9999987335521388
2400.1976465521443 0.9999985768317772
2400.200046750991 0.9999983435682558
2400.202446952238 0.9999979486086858
2400.204847155885 0.999997179869065
2400.2072473619323 0.9999956674422639
2400.2096475703793 0.9999931744656524
2400.212047781227 0.9999900175111056
2400.2144479944745 0.9999873519566547
2400.2168482101224 0.9999869315082245
2400.219248428171 0.9999891035960831
2400.221648648619 0.9999922735051125
2400.224048871468 0.9999950031714845
2400.226449096717 0.9999967516446019
2400.228849324366 0.9999976354969683
2400.2312495544156 0.9999980474178876
2400.233649786865 0.9999982553931658
2400.2360500217146 0.9999983712233803
2400.238450258965 0.9999984378662212
2400.240850498615 0.9999984743590988
2400.2432507406656 0.999998490599663
2400.2456509851163 0.9999984922496195
2400.2480512319676 0.9999984827139095
2400.2504514812185 0.9999984640395303
2400.2528517328706 0.9999984374043127
2400.2552519869223 0.9999984033594687
2400.257652243374 0.9999983619520012
2400.2600525022262 0.9999983127571939
2400.262452763479 0.999998254836069
2400.2648530271317 0.9999981866123504
2400.2672532931847 0.9999981056263475
2400.2696535616383 0.9999980081136937
2400.272053832492 0.9999978881820818
2400.2744541057455 0.9999977363599095
2400.2768543813995 0.9999975363041368
2400.279254659454 0.9999972567405311
2400.281654939909 0.9999968284012072
2400.284055222764 0.9999960813178735
2400.2864555080196 0.9999946517376663
2400.288855795675 0.9999920616444862
2400.2912560857308 0.9999881727777404
2400.293656378187 0.9999840359340684
2400.2960566730435 0.999982566435576
2400.2984569703003 0.9999852093921446
2400.3008572699573 0.9999894992658208
2400.3032575720144 0.9999929714861353
2400.3056578764727 0.999995066733818
2400.30805818333 0.9999961030634277
2400.3104584925886 0.9999965792946487
2400.3128588042473 0.999996795055555
2400.315259118306 0.9999968553118996
2400.317659434765 0.9999967442548992
2400.3200597536247 0.9999963674418237
2400.3224600748845 0.9999956995439
2400.324860398545 0.9999949399363223
2400.3272607246054 0.9999943912592695
2400.329661053066 0.9999942631344213
2400.332061383927 0.9999945910455136
2400.3344617171883 0.9999952273628387
2400.3368620528504 0.9999958817529316
2400.3392623909126 0.9999962957043944
2400.341662731375 0.9999964384347624
2400.344063074238 0.9999964297425242
2400.346463419501 0.9999963606133874
2400.3488637671644 0.9999962660559154
2400.3512641172283 0.9999961565893717
2400.3536644696924 0.9999960354664629
2400.356064824557 0.9999959037738326
2400.358465181822 0.9999957617374996
2400.3608655414873 0.9999956091142937
2400.363265903553 0.9999954453282732
2400.365666268019 0.9999952695145632
2400.3680666348855 0.9999950805270563
2400.370467004152 0.9999948769178726
2400.372867375819 0.9999946569249509
2400.375267749887 0.9999944184440399
2400.377668126355 0.9999941590280866
2400.380068505223 0.9999938758617809
2400.3824688864916 0.9999935657114624
2400.3848692701604 0.999993224750875
2400.38726965623 0.9999928481105873
2400.3896700446994 0.9999924290492973
2400.3920704355696 0.9999919571883645
2400.394470828841 0.9999914164014625
2400.3968712245114 0.9999907813782407
2400.3992716225825 0.9999900122767562
2400.4016720230543 0.9999890361180624
2400.404072425926 0.9999876588108751
2400.4064728311987 0.9999852673172522
2400.408873238872 0.9999806682069539
2400.411273648945 0.9999714268324036
2400.4136740614185 0.9999545676443538
2400.416074476293 0.9999360636604612
2400.4184748935677 0.999932698708929
2400.4208753132425 0.9999481617031775
2400.423275735318 0.9999669740791626
2400.425676159794 0.999978425834684
2400.42807658667 0.9999841548080496
2400.430477015947 0.9999870875103526
2400.432877447624 0.9999886789549896
2400.435277881702 0.9999897395028696
2400.43767831818 0.9999905575898524
2400.440078757058 0.9999912268638688
2400.442479198337 0.9999917923756041
2400.444879642016 0.9999922823871864
2400.447280088096 0.9999927152215433
2400.449680536576 0.9999931027674649
2400.4520809874566 0.9999934526610534
2400.4544814407377 0.9999937702765115
2400.4568818964194 0.9999940597202903
2400.4592823545017 0.999994324407076
2400.461682814984 0.9999945673071665
2400.4640832778673 0.9999947910206703
2400.4664837431505 0.9999949978088325
2400.4688842108344 0.9999951896125494
2400.471284680919 0.9999953680703131
2400.4736851534035 0.9999955345522229
2400.476085628289 0.9999956901816139
2400.4784861055746 0.9999958358391405
2400.480886585261 0.9999959720829539
2400.4832870673476 0.9999960986684264
2400.485687551835 0.9999962126463269
2400.4880880387227 0.9999963039169535
2400.490488528011 0.9999963555447297
2400.4928890196993 0.9999963709743707
2400.495289513789 0.9999964074746855
2400.4976900102783 0.99999652371758
2400.5000905091683 0.9999966930939591
2400.5024910104594 0.9999968470520388
2400.5048915141506 0.9999969610149645
2400.5072920202424 0.9999970479787618
2400.5096925287344 0.9999971222726284
2400.512093039627 0.9999971901507188
2400.5144935529206 0.9999972536546307
2400.516894068614 0.9999973135088632
2400.519294586708 0.9999973700766608
2400.521695107203 0.9999974236025564
2400.524095630098 0.999997474278304
2400.526496155394 0.9999975222660268
2400.5288966830904 0.9999975677071342
2400.531297213187 0.9999976107286365
2400.5336977456845 0.999997651444936
2400.5360982805823 0.9999976899603451
2400.5384988178807 0.9999977263689755
2400.5408993575797 0.999997760758868
2400.54329989968 0.9999977932096195
2400.5457004441796 0.9999978237935705
2400.54810099108 0.9999978525778195
2400.5505015403814 0.9999978796223343
2400.552902092083 0.9999979049818395
2400.5553026461853 0.9999979287045195
2400.557703202688 0.9999979508325826
2400.560103761591 0.9999979714041105
2400.5625043228956 0.9999979904494123
2400.5649048866 0.9999980079924341
2400.5673054527047 0.9999980240504132
2400.56970602121 0.9999980386321204
2400.5721065921166 0.9999980517403745
2400.5745071654233 0.9999980633658461
2400.576907741131 0.9999980734889592
2400.579308319239 0.9999980820767068
2400.5817088997474 0.9999980890806571
2400.5841094826565 0.9999980944328414
2400.586510067966 0.9999980980425881
2400.5889106556765 0.9999980997879651
2400.5913112457874 0.999998099511654
2400.5937118382985 0.9999980970067891
2400.5961124332107 0.9999980920032776
2400.5985130305235 0.9999980841469814
2400.6009136302364 0.9999980729702388
2400.6033142323504 0.9999980578486454
2400.605714836865 0.9999980379376404
2400.6081154437798 0.9999980120772848
2400.6105160530956 0.9999979786407777
2400.6129166648116 0.9999979352840206
2400.6153172789286 0.9999978785582082
2400.617717895446 0.999997803128656
2400.620118514364 0.9999977003334367
2400.622519135683 0.9999975546138477
2400.6249197594025 0.9999973331047689
2400.627320385522 0.9999969533446192
2400.629721014043 0.9999962207394312
2400.632121644964 0.9999948577121283
2400.634522278286 0.9999927932715752
2400.6369229140087 0.9999904511191787
2400.6393235521314 0.9999885624424618
2400.641724192655 0.9999879322805433
2400.6441248355795 0.9999888800322103
2400.646525480905 0.9999909338918758
2400.6489261286306 0.9999932675615082
2400.651326778757 0.9999951938615722
2400.6537274312836 0.999996392462112
2400.6561280862115 0.9999970141362531
2400.6585287435396 0.9999973362919081
2400.6609294032687 0.99999752531971
2400.6633300653984 0.9999976484284437
2400.665730729929 0.9999977331283808
2400.6681313968597 0.9999977929911008
2400.6705320661913 0.9999978357680451
2400.6729327379235 0.9999978663016678
2400.6753334120563 0.9999978877550451
2400.67773408859 0.9999979022915084
2400.680134767524 0.9999979114218737
2400.682535448859 0.9999979162312943
2400.684936132595 0.9999979175133533
2400.6873368187316 0.9999979158569743
2400.6897375072685 0.9999979117068789
2400.6921381982065 0.9999979053988526
2400.694538891545 0.9999978971916267
2400.6969395872843 0.9999978872783511
2400.699340285424 0.9999978758137011
2400.7017409859645 0.999997862906711
2400.704141688906 0.999997848638422
2400.706542394248 0.9999978330631948
2400.708943101991 0.999997816212178
2400.711343812134 0.999997798097378
2400.713744524678 0.9999977787079793
2400.716145239623 0.9999977580163045
2400.7185459569682 0.9999977359695289
2400.7209466767144 0.9999977124946967
2400.7233473988613 0.9999976874910804
2400.7257481234087 0.9999976608269991
2400.7281488503572 0.999997632334579
2400.7305495797063 0.9999976017956197
2400.7329503114565 0.99999756893589
2400.735351045607 0.9999975334029033
2400.7377517821583 0.9999974947456406
2400.7401525211103 0.9999974523769559
2400.742553262463 0.9999974055282816
2400.7449540062166 0.9999973531766281
2400.747354752371 0.9999972939373571
2400.749755500926 0.9999972259000487
2400.752156251882 0.9999971463446506
2400.754557005238 0.9999970513503948
2400.7569577609956 0.9999969349237608
2400.7593585191535 0.999996787457383
2400.7617592797124 0.9999965918676171
2400.764160042672 0.9999963127698229
2400.7665608080324 0.9999958672395225
2400.7689615757936 0.9999950855233066
2400.7713623459554 0.9999937757780515
2400.7737631185178 0.9999920244585396
2400.776163893481 0.9999901859031437
2400.7785646708453 0.9999887863826168
2400.7809654506104 0.999988316523457
2400.783366232776 0.99998895382418
2400.7857670173426 0.9999904545315152
2400.78816780431 0.9999922928126704
2400.790568593678 0.9999939579897438
2400.792969385447 0.9999951213742686
2400.795370179617 0.9999957669339243
2400.797770976187 0.9999961077918138
2400.8001717751586 0.9999963019604136
2400.8025725765306 0.9999964214081208
2400.8049733803036 0.9999964969414151
2400.8073741864773 0.9999965438836459
2400.8097749950516 0.999996571033372
2400.8121758060265 0.999996583922426
2400.8145766194034 0.9999965861818314
2400.81697743518 0.9999965803186018
2400.819378253358 0.9999965680890587
2400.821779073937 0.999996550756658
2400.8241798969157 0.9999965292500995
2400.826580722296 0.9999965042604011
2400.828981550077 0.9999964763108004
2400.831382380259 0.9999964457990198
2400.8337832128414 0.9999964130335207
2400.8361840478256 0.9999963782529778
2400.8385848852095 0.999996341642553
2400.8409857249944 0.999996303348428
2400.843386567181 0.9999962634838082
2400.8457874117676 0.9999962221357429
2400.8481882587557 0.9999961793715528
2400.850589108144 0.9999961352413543
2400.8529899599334 0.9999960897806185
2400.855390814124 0.9999960430121148
2400.857791670715 0.9999959949468714
2400.860192529707 0.9999959455854848
2400.8625933911 0.9999958949188302
2400.8649942548936 0.9999958429252448
2400.867395121088 0.9999957895708431
2400.8697959896836 0.9999957348027048
2400.87219686068 0.9999956785492976
2400.8745977340773 0.9999956207077505
2400.876998609875 0.9999955611263199
2400.8793994880743 0.9999954995806027
2400.8818003686742 0.9999954357101359
2400.8842012516748 0.9999953689026645
2400.8866021370764 0.9999952979668276
2400.889003024879 0.9999952200549291
2400.8914039150823 0.999995126383044
2400.8938048076866 0.9999949872244198
2400.8962057026915 0.9999947202927918
2400.8986066000975 0.9999941995228969
2400.9010074999046 0.9999934381968143
2400.9034084021123 0.9999927720387511
2400.9058093067215 0.9999926179877695
2400.908210213731 0.9999930437971116
2400.9106111231413 0.9999936881190028
2400.9130120349528 0.999994138727877
2400.9154129491653 0.9999943033880299
2400.917813865779 0.999994306597669
2400.9202147847927 0.9999942510166598
2400.9226157062076 0.9999941758478428
2400.925016630024 0.9999940922412297
2400.927417556241 0.99999400342394
2400.929818484859 0.9999939105530002
2400.932219415878 0.9999938141228477
2400.934620349298 0.9999937143534355
2400.9370212851186 0.9999936113280702
2400.93942222334 0.9999935050496754
2400.9418231639625 0.9999933954742647
2400.944224106986 0.999993282524185
2400.9466250524106 0.9999931660993225
2400.949026000236 0.9999930460780506
2400.9514269504625 0.9999929223219821
2400.95382790309 0.9999927946720655
2400.956228858118 0.999992662955434
2400.9586298155473 0.9999925269714578
2400.9610307753774 0.9999923864992213
2400.963431737609 0.9999922412902781
2400.9658327022407 0.99999209103752
2400.968233669274 0.9999919354644353
2400.9706346387084 0.9999917741883654
2400.9730356105433 0.999991606800317
2400.975436584779 0.999991432836919
2400.9778375614164 0.9999912517615486
2400.980238540454 0.9999910629054338
2400.9826395218934 0.9999908658505723
2400.985040505733 0.999990659788784
2400.987441491974 0.9999904220930519
2400.989842480616 0.9999901762025322
2400.9922434716586 0.999989920983895
2400.9946444651027 0.9999896552667595
2400.9970454609474 0.9999893778683994
2400.999446459193 0.9999890875387505
2401.00184745984 0.9999887829181253
2401.004248462888 0.9999884624266281
2401.006649468337 0.9999881241612872
2401.009050476187 0.9999877657179352
2401.0114514864376 0.9999873840045951
2401.0138524990894 0.9999869750505523
2401.0162535141426 0.9999865338440822
2401.0186545315964 0.9999860543110963
2401.0210555514514 0.9999855293337363
2401.0234565737073 0.9999849508348293
2401.025857598364 0.9999843093259901
2401.028258625422 0.999983590832014
2401.030659654881 0.99998277449428
2401.0330606867415 0.9999818217047304
2401.0354617210023 0.9999806523034228
2401.0378627576647 0.9999789929029204
2401.0402637967277 0.9999750361904198
2401.042664838192 0.9999557871097291
2401.0450658820573 0.9998697240575226
2401.0474669283235 0.9997338628928834
2401.0498679769908 0.9996787439156051
2401.052269028059 0.9996676618964592
2401.054670081529 0.9996811764537051
2401.0570711373994 0.9997433578258788
2401.059472195671 0.9998816942165707
2401.0618732563435 0.9999591721679074
2401.064274319417 0.9999756512845571
2401.0666753848914 0.9999791844894166
2401.0690764527676 0.9999807713063883
2401.0714775230445 0.9999819153963881
2401.0738785957224 0.9999828535104098
2401.076279670802 0.9999836598022549
2401.0786807482814 0.9999843706810091
2401.081081828163 0.9999850057980315
2401.083482910445 0.9999855776949775
2401.0858839951284 0.9999860957638934
2401.088285082213 0.9999865680496088
2401.0906861716985 0.9999870015960082
2401.0930872635854 0.9999874023988533
2401.095488357873 0.99998777535553
2401.097889454562 0.999988124320643
2401.100290553651 0.9999884522688592
2401.1026916551423 0.9999887614802787
2401.1050927590345 0.9999890537394114
2401.107493865328 0.9999893304824458
2401.1098949740217 0.9999895929280599
2401.112296085117 0.999989842147052
2401.114697198614 0.9999900791177977
2401.1170983145116 0.9999903047602468
2401.1194994328107 0.999990519921208
2401.12190055351 0.9999907254121562
2401.1243016766116 0.9999909219837698
2401.1267028021134 0.9999911104363802
2401.1291039300168 0.9999912911891766
2401.131505060321 0.9999914649057533
2401.1339061930266 0.999991632121869
2401.1363073281336 0.9999917932953809
2401.138708465641 0.9999919488538215
2401.14110960555 0.9999920991216978
2401.14351074786 0.9999922444356747
2401.1459118925713 0.9999923850827717
2401.1483130396837 0.9999925213157826
2401.150714189197 0.9999926533611052
2401.153115341112 0.9999927814250499
2401.1555164954275 0.9999929056934115
2401.1579176521445 0.999993026337873
2401.160318811263 0.9999931435183965
2401.1627199727823 0.999993257381613
2401.1651211367025 0.9999933680682296
2401.1675223030243 0.999993475710144
2401.169923471747 0.9999935804332586
2401.172324642871 0.99999368235768
2401.174725816396 0.9999937815976928
2401.1771269923224 0.9999938782623351
2401.17952817065 0.9999939627352353
2401.1819293513786 0.9999940364037239
2401.1843305345087 0.9999941103021404
2401.1867317200395 0.9999941841196727
2401.1891329079717 0.9999942576286741
2401.1915340983055 0.9999943306623053
2401.19393529104 0.9999944031061697
2401.196336486176 0.9999944748848815
2401.198737683713 0.9999945459599525
2401.201138883651 0.9999946163273947
2401.2035400859904 0.9999946860208364
2401.205941290731 0.9999947551168514
2401.2083424978728 0.9999948237629434
2401.210743707416 0.999994892208185
2401.21314491936 0.9999949605067743
2401.215546133705 0.9999950274264217
2401.217947350452 0.9999950930131108
2401.2203485695995 0.9999951573111715
2401.2227497911485 0.9999952203599527
2401.225151015099 0.9999952822005592
2401.2275522414507 0.9999953428683817
2401.2299534702033 0.9999954023994997
2401.2323547013575 0.9999954608265571
2401.2347559349128 0.9999955181827416
2401.237157170869 0.9999955744967202
2401.239558409227 0.9999956297988748
2401.241959649986 0.9999956841161527
2401.244360893146 0.9999957374751527
2401.2467621387077 0.9999957899013477
2401.2491633866703 0.9999958414196308
2401.251564637034 0.99999587895704
2401.253965889799 0.9999959196795244
2401.2563671449657 0.9999959628838238
2401.2587684025334 0.9999960071251256
2401.261169662502 0.9999960517288844
2401.263570924872 0.9999960963406906
2401.2659721896434 0.9999961407551132
2401.2683734568163 0.9999961848517195
2401.2707747263903 0.9999962285539308
2401.273175998366 0.9999962718149724
2401.2755772727423 0.9999963146053598
