Atmospheric Species: CO
Metallicity: 1
C/O_Ratio: 0.5
Wavelength[nm] Flux_variation
899.9996421494948 0.9999998146309517
900.0005421495869 0.9999998146310023
900.001442150579 0.999999814631053
900.0023421524711 0.9999998146311037
900.0032421552633 0.9999998146311544
900.0041421589555 0.9999998146312051
900.0050421635475 0.9999998146312556
900.0059421690396 0.9999998146313064
900.0068421754318 0.999999814631357
900.0077421827239 0.9999998146314077
900.0086421909161 0.9999998146314584
900.0095422000082 0.9999998146314373
900.0104422100004 0.9999998146313686
900.0113422208927 0.9999998146312997
900.0122422326849 0.9999998146312311
900.013142245377 0.9999998146311624
900.0140422589691 0.9999998146310936
900.0149422734613 0.9999998146310249
900.0158422888536 0.9999998146309561
900.0167423051458 0.9999998146308873
900.017642322338 0.9999998146308187
900.0185423404303 0.9999998146307499
900.0194423594227 0.9999998146306811
900.020342379315 0.9999998146306125
900.0212424001073 0.9999998146305437
900.0221424217997 0.9999998146304748
900.0230424443921 0.9999998146304062
900.0239424678846 0.9999998146303374
900.024842492277 0.9999998146302687
900.0257425175695 0.9999998146301998
900.0266425437621 0.999999814630131
900.0275425708543 0.9999998146300622
900.028442598847 0.9999998146299935
900.0293426277395 0.9999998146299247
900.0302426575322 0.9999998146298559
900.0311426882248 0.9999998146297872
900.0320427198175 0.9999998146297183
900.0329427523099 0.9999998146296495
900.0338427857027 0.9999998146295808
900.0347428199954 0.9999998146295119
900.0356428551884 0.9999998146294431
900.0365428912813 0.9999998146293743
900.0374429282743 0.9999998146293055
900.0383429661671 0.9999998146292366
900.0392430049601 0.9999998146291678
900.0401430446531 0.9999998146290989
900.0410430852461 0.9999998146290301
900.041943126739 0.9999998146289613
900.0428431691322 0.9999998146288924
900.0437432124255 0.9999998146288236
900.0446432566187 0.9999998146287548
900.0455433017121 0.9999998146286859
900.0464433477051 0.9999998146286262
900.0473433945986 0.9999998146285776
900.0482434423918 0.9999998146285289
900.0491434910853 0.9999998146284803
900.0500435406788 0.9999998146284317
900.0509435911723 0.9999998146283828
900.051843642566 0.9999998146283343
900.0527436948595 0.9999998146282857
900.0536437480532 0.999999814628237
900.0545438021469 0.9999998146281882
900.0554438571407 0.9999998146281396
900.0563439130347 0.999999814628091
900.0572439698285 0.9999998146280422
900.0581440275225 0.9999998146279935
900.0590440861165 0.9999998146279448
900.0599441456106 0.9999998146278961
900.0608442060047 0.9999998146278475
900.0617442672989 0.9999998146277987
900.0626443294932 0.99999981462775
900.0635443925875 0.9999998146277013
900.064444456582 0.9999998146276525
900.0653445214763 0.9999998146276039
900.0662445872707 0.999999814627555
900.0671446539653 0.9999998146275063
900.06804472156 0.9999998146274576
900.0689447900545 0.9999998146274088
900.0698448594495 0.9999998146273601
900.0707449297444 0.9999998146273114
900.0716450009393 0.9999998146272626
900.0725450730342 0.9999998146272139
900.0734451460294 0.9999998146271651
900.0743452199245 0.9999998146271164
900.0752452947198 0.9999998146270676
900.0761453704149 0.9999998146270188
900.0770454470104 0.9999998146269701
900.0779455245058 0.9999998146269213
900.0788456029013 0.9999998146268725
900.0797456821969 0.9999998146268237
900.0806457623926 0.999999814626775
900.0815458434884 0.999999814626726
900.0824459254843 0.9999998146266773
900.0833460083802 0.9999998146266286
900.0842460921762 0.9999998146265798
900.0851461768722 0.9999998146265309
900.0860462624685 0.9999998146264821
900.0869463489646 0.9999998146264334
900.087846436361 0.9999998146263844
900.0887465246574 0.9999998146263358
900.0896466138541 0.9999998146262868
900.0905467039507 0.9999998146262381
900.0914467949473 0.9999998146261891
900.0923468868441 0.9999998146261404
900.093246979641 0.9999998146260916
900.0941470733379 0.9999998146260426
900.095047167935 0.9999998146259939
900.0959472634321 0.9999998146259451
900.0968473598296 0.9999998146258963
900.0977474571268 0.9999998146258472
900.0986475553243 0.9999998146257985
900.0995476544218 0.9999998146257496
900.1004477544196 0.9999998146257006
900.1013478553174 0.9999998146256518
900.1022479571152 0.999999814625603
900.1031480598132 0.999999814625554
900.1040481634111 0.9999998146255051
900.1049482679095 0.9999998146254564
900.1058483733077 0.9999998146254074
900.1067484796062 0.9999998146253585
900.1076485868047 0.9999998146253096
900.1085486949032 0.9999998146252608
900.1094488039018 0.9999998146252117
900.1103489138007 0.9999998146251629
900.1112490245996 0.9999998146251139
900.1121491362986 0.999999814625065
900.1130492488979 0.9999998146250161
900.1139493623971 0.9999998146249672
900.1148494767965 0.9999998146249184
900.115749592096 0.9999998146248692
900.1166497082957 0.9999998146248203
900.1175498253954 0.9999998146247715
900.1184499433953 0.9999998146247225
900.1193500622951 0.9999998146246735
900.1202501820952 0.9999998146246246
900.1211503027954 0.9999998146245757
900.1220504243958 0.9999998146245266
900.1229505468962 0.9999998146244777
900.1238506702967 0.9999998146244288
900.1247507945975 0.9999998146243797
900.1256509197983 0.9999998146243307
900.1265510458993 0.9999998146242818
900.1274511729004 0.9999998146242329
900.1283513008017 0.9999998146241839
900.129251429603 0.9999998146241349
900.1301515593042 0.9999998146240858
900.1310516899059 0.9999998146240368
900.1319518214076 0.9999998146239878
900.1328519538096 0.9999998146239388
900.1337520871116 0.9999998146238899
900.1346522213137 0.9999998146238407
900.1355523564158 0.9999998146237918
900.1364524924182 0.9999998146237429
900.1373526293208 0.9999998146236937
900.1382527671235 0.9999998146236447
900.1391529058263 0.9999998146235957
900.1400530454292 0.9999998146235466
900.1409531859323 0.9999998146234976
900.1418533273356 0.9999998146234486
900.1427534696388 0.9999998146233995
900.1436536128424 0.9999998146233504
900.144553756946 0.9999998146233013
900.1454539019498 0.9999998146232524
900.1463540478538 0.9999998146232032
900.1472541946582 0.9999998146231542
900.1481543423622 0.9999998146231052
900.1490544909666 0.9999998146230561
900.149954640471 0.9999998146230069
900.1508547908757 0.9999998146229578
900.1517549421804 0.9999998146229089
900.1526550943853 0.9999998146228597
900.1535552474907 0.9999998146228106
900.1544554014959 0.9999998146227616
900.1553555564013 0.9999998146227124
900.156255712207 0.9999998146226633
900.1571558689127 0.9999998146226142
900.1580560265187 0.999999814622565
900.1589561850247 0.999999814622516
900.159856344431 0.9999998146224669
900.1607565047374 0.9999998146224177
900.161656665944 0.9999998146223685
900.1625568280508 0.9999998146223195
900.1634569910575 0.9999998146222703
900.1643571549646 0.9999998146222213
900.1652573197717 0.999999814622172
900.166157485479 0.9999998146221228
900.1670576520864 0.9999998146220738
900.1679578195943 0.9999998146220246
900.1688579880022 0.9999998146219754
900.1697581573101 0.9999998146219263
900.1706583275183 0.9999998146218771
900.1715584986268 0.9999998146218981
900.1724586706354 0.9999998146219691
900.1733588435441 0.9999998146220401
900.1742590173529 0.999999814622111
900.1751591920622 0.999999814622182
900.1760593676713 0.9999998146222531
900.1769595441807 0.999999814622324
900.1778597215903 0.9999998146223951
900.1787598999 0.9999998146224659
900.17966007911 0.999999814622537
900.1805602592201 0.999999814622608
900.1814604402305 0.999999814622679
900.182360622141 0.9999998146227499
900.1832608049516 0.999999814622821
900.1841609886624 0.9999998146228919
900.1850611732734 0.9999998146229628
900.1859613587848 0.9999998146230339
900.1868615451962 0.9999998146231046
900.1877617325077 0.9999998146231757
900.1886619207195 0.9999998146232467
900.1895621098315 0.9999998146233177
900.1904622998437 0.9999998146233886
900.1913624907561 0.9999998146234595
900.1922626825685 0.9999998146235305
900.1931628752812 0.9999998146236015
900.1940630688943 0.9999998146236725
900.1949632634075 0.9999998146237435
900.1958634588207 0.9999998146238145
900.1967636551343 0.9999998146238854
900.1976638523481 0.9999998146239564
900.1985640504619 0.9999998146240274
900.199464249476 0.9999998146240983
900.2003644493906 0.9999998146241693
900.2012646502048 0.9999998146242403
900.2021648519196 0.9999998146243112
900.2030650545345 0.9999998146243821
900.2039652580496 0.9999998146244531
900.2048654624649 0.999999814624524
900.2057656677805 0.9999998146245951
900.206665873996 0.999999814624666
900.2075660811121 0.999999814624737
900.2084662891282 0.9999998146248283
900.2093664980446 0.9999998146249601
900.2102667078611 0.9999998146250919
900.211166918578 0.9999998146252236
900.2120671301949 0.9999998146253554
900.2129673427122 0.999999814625487
900.2138675561295 0.9999998146256188
900.2147677704475 0.9999998146257506
900.2156679856652 0.9999998146258824
900.2165682017832 0.9999998146260141
900.2174684188016 0.9999998146261458
900.2183686367199 0.9999998146262775
900.2192688555386 0.9999998146264093
900.2201690752576 0.9999998146265411
900.2210692958768 0.9999998146266729
900.2219695173961 0.9999998146268045
900.2228697398157 0.9999998146269364
900.2237699631354 0.9999998146270682
900.2246701873555 0.9999998146272
900.2255704124758 0.9999998146273317
900.2264706384963 0.9999998146274635
900.2273708654169 0.9999998146275952
900.2282710932378 0.999999814627727
900.229171321959 0.9999998146278588
900.2300715515805 0.9999998146279905
900.2309717821018 0.9999998146281223
900.2318720135238 0.999999814628254
900.2327722458459 0.9999998146283858
900.2336724790683 0.9999998146285176
900.2345727131908 0.9999998146286494
900.2354729482137 0.9999998146287812
900.2363731841367 0.9999998146289131
900.2372734209599 0.9999998146290449
900.2381736586835 0.9999998146291766
900.2390738973071 0.9999998146293084
900.2399741368312 0.9999998146294401
900.2408743772554 0.999999814629572
900.2417746185798 0.9999998146297037
900.2426748608045 0.9999998146298354
900.2435751039295 0.9999998146299672
900.2444753479547 0.9999998146300991
900.2453755928801 0.9999998146302308
900.2462758387059 0.9999998146303627
900.2471760854318 0.9999998146304945
900.2480763330581 0.9999998146306265
900.2489765815844 0.9999998146307582
900.2498768310113 0.99999981463089
900.250777081338 0.9999998146310218
900.2516773325652 0.9999998146311536
900.2525775846927 0.9999998146312854
900.2534778377203 0.9999998146314172
900.2543780916483 0.999999814631549
900.2552783464765 0.9999998146316808
900.2561786022051 0.9999998146318126
900.2570788588337 0.9999998146319444
900.2579791163627 0.9999998146320762
900.2588793747918 0.999999814632208
900.2597796341213 0.9999998146323398
900.260679894351 0.9999998146324718
900.261580155481 0.9999998146326037
900.2624804175114 0.9999998146327355
900.2633806804417 0.9999998146328672
900.2642809442725 0.999999814632999
900.2651812090035 0.9999998146331309
900.266081474635 0.9999998146332627
900.2669817411663 0.9999998146333945
900.2678820085983 0.9999998146335264
900.2687822769304 0.9999998146336582
900.2696825461628 0.9999998146337901
900.2705828162955 0.9999998146339218
900.2714830873283 0.9999998146340537
900.2723833592615 0.9999998146341856
900.273283632095 0.9999998146343174
900.2741839058286 0.9999998146344493
900.2750841804626 0.9999998146345811
900.275984455997 0.999999814634713
900.2768847324317 0.9999998146348449
900.2777850097663 0.9999998146349767
900.2786852880015 0.9999998146351086
900.2795855671369 0.9999998146352403
900.2804858471725 0.9999998146353721
900.2813861281085 0.999999814635504
900.2822864099447 0.9999998146356359
900.2831866926813 0.9999998146357678
900.2840869763181 0.9999998146358996
900.2849872608552 0.9999998146360316
900.2858875462927 0.9999998146361635
900.2867878326304 0.9999998146362953
900.2876881198681 0.9999998146364272
900.2885884080065 0.9999998146365591
900.2894886970449 0.9999998146366909
900.2903889869838 0.9999998146368227
900.2912892778226 0.9999998146369545
900.292189569562 0.9999998146370865
900.2930898622019 0.9999998146372184
900.2939901557417 0.9999998146373502
900.2948904501819 0.9999998146374821
900.2957907455225 0.9999998146376139
900.2966910417633 0.9999998146377458
900.2975913389042 0.9999998146378778
900.2984916369458 0.9999998146380097
900.2993919358875 0.9999998146381416
900.3002922357296 0.9999998146382735
900.3011925364718 0.9999998146384054
900.3020928381144 0.9999998146385372
900.3029931406575 0.9999998146386692
900.3038934441007 0.9999998146388009
900.3047937484444 0.999999814638933
900.3056940536881 0.9999998146390647
900.3065943598324 0.9999998146391966
900.3074946668769 0.9999998146393286
900.3083949748217 0.9999998146394604
900.309295283667 0.9999998146395924
900.3101955934121 0.9999998146397243
900.3110959040579 0.9999998146398563
900.3119962156038 0.9999998146399881
900.3128965280501 0.99999981464012
900.3137968413969 0.9999998146402519
900.3146971556439 0.9999998146403839
900.3155974707911 0.9999998146405158
900.3164977868386 0.9999998146406477
900.3173981037866 0.9999998146407796
900.3182984216348 0.9999998146409115
900.3191987403833 0.9999998146410435
900.3200990600324 0.9999998146411753
900.3209993805816 0.9999998146413072
900.321899702031 0.9999998146414392
900.3228000243807 0.9999998146415712
900.323700347631 0.9999998146417031
900.3246006717815 0.999999814641835
900.3255009968323 0.9999998146419669
900.3264013227833 0.9999998146420987
900.3273016496348 0.9999998146422308
900.3282019773867 0.9999998146423628
900.3291023060387 0.9999998146424947
900.3300026355911 0.9999998146426265
900.3309029660439 0.9999998146427584
900.331803297397 0.9999998146428903
900.3327036296505 0.9999998146430223
900.3336039628042 0.9999998146431633
900.3345042968583 0.999999814643312
900.3354046318127 0.9999998146434608
900.3363049676675 0.9999998146436097
900.3372053044228 0.9999998146437584
900.3381056420781 0.9999998146439073
900.3390059806339 0.9999998146440561
900.33990632009 0.9999998146442047
900.3408066604466 0.9999998146443536
900.3417070017032 0.9999998146445024
900.3426073438604 0.9999998146446513
900.343507686918 0.9999998146448
900.3444080308757 0.9999998146449488
900.3453083757339 0.9999998146450976
900.3462087214925 0.9999998146452463
900.3471090681511 0.9999998146453952
900.3480094157104 0.9999998146455439
900.34890976417 0.9999998146456927
900.3498101135299 0.9999998146458416
900.3507104637902 0.9999998146459903
900.3516108149508 0.9999998146461391
900.3525111670116 0.999999814646288
900.353411519973 0.9999998146464367
900.3543118738346 0.9999998146465856
900.3552122285967 0.9999998146467344
900.3561125842591 0.9999998146468831
900.3570129408217 0.999999814647032
900.3579132982849 0.9999998146471808
900.3588136566484 0.9999998146473297
900.3597140159121 0.9999998146474784
900.3606143760762 0.9999998146476272
900.3615147371407 0.9999998146477761
900.3624150991056 0.9999998146479249
900.3633154619708 0.9999998146480737
900.3642158257364 0.9999998146482225
900.3651161904023 0.9999998146483713
900.3660165559686 0.9999998146485203
900.3669169224354 0.999999814648669
900.3678172898025 0.9999998146488178
900.3687176580698 0.9999998146489667
900.3696180272376 0.9999998146491155
900.370518397306 0.9999998146492658
900.3714187682745 0.9999998146494223
900.3723191401434 0.9999998146495788
900.3732195129127 0.9999998146497353
900.3741198865823 0.9999998146498918
900.3750202611524 0.9999998146500482
900.3759206366227 0.9999998146502047
900.3768210129937 0.9999998146503613
900.3777213902647 0.9999998146505178
900.3786217684362 0.9999998146506742
900.3795221475082 0.9999998146508309
900.3804225274805 0.9999998146509873
900.3813229083532 0.9999998146511438
900.3822232901261 0.9999998146513004
900.3831236727998 0.9999998146514568
900.3840240563736 0.9999998146516134
900.3849244408478 0.9999998146517699
900.3858248262225 0.9999998146519263
900.3867252124975 0.9999998146520829
900.3876255996728 0.9999998146522394
900.3885259877486 0.9999998146523958
900.3894263767248 0.9999998146525525
900.3903267666016 0.9999998146527089
900.3912271573782 0.9999998146528655
900.3921275490555 0.9999998146530219
900.3930279416334 0.9999998146531786
900.3939283351115 0.999999814653335
900.3948287294899 0.9999998146534916
900.3957291247688 0.9999998146536481
900.3966295209481 0.9999998146538045
900.3975299180277 0.9999998146539611
900.3984303160078 0.9999998146541176
900.3993307148883 0.9999998146542742
900.4002311146692 0.9999998146544307
900.4011315153505 0.9999998146545873
900.4020319169321 0.9999998146547437
900.402932319414 0.9999998146549003
900.4038327227967 0.9999998146550568
900.4047331270797 0.9999998146552134
900.405633532263 0.9999998146553698
900.4065339383466 0.9999998146555265
900.4074343453307 0.9999998146556829
900.4083347532152 0.9999998146558394
900.4092351620001 0.9999998146559962
900.4101355716855 0.9999998146561526
900.4110359822713 0.9999998146563092
900.4119363937574 0.9999998146564656
900.4128368061439 0.9999998146566222
900.4137372194309 0.9999998146567788
900.4146376336182 0.9999998146569353
900.4155380487061 0.9999998146570918
900.4164384646944 0.9999998146572484
900.4173388815831 0.999999814657405
900.4182392993721 0.9999998146575615
900.4191397180616 0.999999814657718
900.4200401376515 0.9999998146578746
900.4209405581418 0.9999998146580311
900.4218409795324 0.9999998146581877
900.4227414018235 0.9999998146583443
900.423641825015 0.9999998146585009
900.424542249107 0.9999998146586574
900.4254426740995 0.9999998146588139
900.4263430999921 0.9999998146589706
900.4272435267856 0.999999814659127
900.4281439544791 0.9999998146592836
900.4290443830733 0.9999998146594401
900.4299448125679 0.9999998146595968
900.4308452429628 0.9999998146597533
900.4317456742582 0.9999998146599098
900.4326461064541 0.9999998146600663
900.4335465395504 0.999999814660223
900.4344469735471 0.9999998146603795
900.4353474084443 0.9999998146605361
900.4362478442418 0.9999998146606928
900.4371482809398 0.9999998146608492
900.4380487185383 0.9999998146610058
900.4389491570372 0.9999998146611624
900.4398495964364 0.9999998146613189
900.4407500367362 0.9999998146614756
900.4416504779364 0.9999998146616321
900.4425509200371 0.9999998146617887
900.4434513630382 0.9999998146619452
900.4443518069397 0.9999998146621019
900.4452522517419 0.9999998146622585
900.4461526974443 0.9999998146624149
900.4470531440471 0.9999998146625716
900.4479535915502 0.9999998146627281
900.448854039954 0.9999998146628847
900.4497544892585 0.9999998146630414
900.4506549394631 0.9999998146631979
900.4515553905683 0.9999998146633545
900.4524558425738 0.9999998146635111
900.4533562954798 0.9999998146636677
900.4542567492863 0.9999998146638243
900.4551572039933 0.9999998146639809
900.4560576596007 0.9999998146641375
900.4569581161086 0.9999998146642941
900.4578585735169 0.9999998146644506
900.4587590318256 0.9999998146646072
900.4596594910348 0.9999998146647637
900.4605599511445 0.9999998146649204
900.4614604121547 0.999999814665077
900.4623608740653 0.9999998146652336
900.4632613368763 0.9999998146653902
900.4641618005877 0.9999998146655468
900.4650622651999 0.9999998146657034
900.4659627307124 0.9999998146658601
900.4668631971253 0.9999998146660167
900.4677636644387 0.9999998146661733
900.4686641326526 0.9999998146663299
900.4695646017668 0.9999998146664864
900.4704650717817 0.9999998146666431
900.4713655426972 0.9999998146667997
900.4722660145127 0.9999998146669563
900.473166487229 0.9999998146671129
900.4740669608458 0.9999998146672695
900.4749674353628 0.999999814667426
900.4758679107805 0.9999998146675827
900.4767683870987 0.9999998146677395
900.4776688643173 0.9999998146678959
900.4785693424363 0.9999998146680527
900.479469821456 0.9999998146682092
900.4803703013758 0.9999998146683658
900.4812707821965 0.9999998146685224
900.4821712639174 0.9999998146686792
900.4830717465388 0.9999998146688356
900.4839722300608 0.9999998146689923
900.4848727144832 0.9999998146691489
900.4857731998062 0.9999998146693055
