Atmospheric Species: CH4
Metallicity: 1000
C/O_Ratio: 1.0
Wavelength[nm] Flux_variation
2199.999397930935 0.9999756083634025
2200.001597931433 0.9999775273274695
2200.003797934131 0.9999793218098049
2200.0059979390285 0.9999813551689217
2200.0081979461265 0.999984167566511
2200.010397955424 0.9999879350965998
2200.0125979669224 0.9999921028140059
2200.01479798062 0.9999948282558406
2200.016997996518 0.9999943970659048
2200.019198014616 0.9999922128212361
2200.021398034914 0.9999895409074355
2200.023598057412 0.9999864787899823
2200.0257980821098 0.9999834089707605
2200.027998109008 0.999981079180422
2200.030198138106 0.9999799316673312
2200.032398169404 0.9999800929889232
2200.034598202902 0.9999815629983817
2200.0367982386 0.9999842135981354
2200.0389982764987 0.9999875171268224
2200.041198316597 0.9999902309386717
2200.043398358895 0.9999915333023575
2200.0455984033933 0.9999923167115025
2200.0477984500917 0.9999934064578219
2200.04999849899 0.9999947694913769
2200.052198550088 0.9999956156902368
2200.0543986033867 0.9999949337749615
2200.0565986588854 0.9999931214624272
2200.058798716584 0.9999912291496139
2200.0609987764824 0.999989769346287
2200.0631988385812 0.9999889663852304
2200.06539890288 0.9999889331870385
2200.0675989693787 0.9999896357352092
2200.0697990380777 0.9999907834377489
2200.071999108977 0.99999140428598
2200.074199182076 0.9999890160304228
2200.076399257375 0.999983615355736
2200.078599334874 0.9999783552989321
2200.0807994145734 0.9999744527315926
2200.082999496473 0.9999719456489634
2200.0851995805724 0.9999707754060291
2200.087399666872 0.9999709382091658
2200.0895997553716 0.9999724263773593
2200.0917998460714 0.9999752291405218
2200.093999938971 0.9999793603681829
2200.096200034071 0.9999846053254225
2200.098400131371 0.9999899506101234
2200.100600230871 0.9999938576452418
2200.1028003325714 0.9999953936065259
2200.1050004364715 0.9999951043305274
2200.107200542572 0.9999941002325304
2200.1094006508724 0.9999931296050658
2200.111600761373 0.9999925838491417
2200.113800874074 0.999992512952035
2200.116000988975 0.9999925304672043
2200.118201106076 0.9999920127810953
2200.120401225377 0.9999909906544865
2200.1226013468786 0.9999901890726844
2200.1248014705798 0.999990145833646
2200.1270015964815 0.9999909341643293
2200.129201724583 0.9999921275495837
2200.1314018548846 0.9999929612511284
2200.1336019873866 0.9999930533148167
2200.1358021220885 0.9999924104933239
2200.1380022589906 0.999991124068604
2200.1402023980927 0.999989789174752
2200.1424025393953 0.9999890826485366
2200.1446026828976 0.9999891839408059
2200.1468028286004 0.9999890536332395
2200.149002976503 0.999986311841694
2200.151203126606 0.9999820947660119
2200.1534032789095 0.999978655657188
2200.1556034334126 0.9999765397671304
2200.157803590116 0.9999757631752201
2200.16000374902 0.9999763111417448
2200.162203910123 0.999978197661709
2200.1644040734272 0.9999814175976401
2200.1666042389315 0.9999856239259667
2200.168804406636 0.9999893691106841
2200.17100457654 0.9999908895796815
2200.173204748645 0.9999910388365114
2200.1754049229494 0.9999909346701887
2200.1776050994545 0.9999897704069299
2200.179805278159 0.9999866463616004
2200.182005459065 0.9999831580489913
2200.18420564217 0.9999804490669827
2200.186405827476 0.9999781921436686
2200.188606014982 0.9999753968724654
2200.1908062046878 0.9999722021880078
2200.193006396594 0.999969598822238
2200.1952065907003 0.999968120653796
2200.197406787007 0.9999679470179624
2200.1996069855136 0.9999691175868378
2200.201807186221 0.9999716131619047
2200.204007389128 0.9999754371340186
2200.2062075942354 0.9999806386661158
2200.208407801543 0.999986138503207
2200.2106080110507 0.9999884174176551
2200.2128082227587 0.9999881457989901
2200.215008436667 0.9999871873765288
2200.2172086527758 0.9999854099690689
2200.2194088710844 0.9999836186855907
2200.221609091593 0.9999827732390117
2200.2238093143023 0.9999832248706857
2200.2260095392116 0.9999849730300866
2200.228209766321 0.9999875565937512
2200.230409995631 0.9999894631537445
2200.232610227141 0.9999896341776403
2200.2348104608513 0.9999894927724845
2200.237010696762 0.9999901393596983
2200.2392109348725 0.9999917176244539
2200.2414111751837 0.9999938633546531
2200.243611417695 0.9999958064548552
2200.245811662406 0.9999967788203723
2200.248011909318 0.9999964131388612
2200.25021215843 0.9999945895827829
2200.2524124097417 0.9999918685287159
2200.254612663254 0.9999893045381512
2200.256812918967 0.9999876057954016
2200.2590131768798 0.9999870477971851
2200.2612134369933 0.9999876579633461
2200.2634136993065 0.999989292525829
2200.26561396382 0.9999915907621302
2200.2678142305344 0.9999938836301698
2200.2700144994487 0.9999950482489667
2200.272214770563 0.9999925898359948
2200.274415043878 0.9999866055934455
2200.2766153193934 0.999980637065783
2200.2788155971084 0.9999760622711656
2200.281015877024 0.999972978263689
2200.28321615914 0.9999712622502018
2200.2854164434566 0.9999708783559454
2200.287616729973 0.9999718053755988
2200.2898170186895 0.9999739495765145
2200.2920173096068 0.9999769428130868
2200.294217602724 0.9999797011763238
2200.296417898042 0.9999814707757085
2200.29861819556 0.9999832753632872
2200.3008184952782 0.9999856509403937
2200.3030187971967 0.9999861365906809
2200.3052191013153 0.9999826047659796
2200.307419407635 0.9999788916427383
2200.309619716154 0.9999764909028396
2200.3118200268736 0.9999754593386965
2200.314020339794 0.9999756502806054
2200.3162206549146 0.9999765703395596
2200.3184209722353 0.9999770242733822
2200.320621291756 0.999976555010668
2200.3228216134776 0.9999763404416293
2200.3250219373995 0.9999772006481502
2200.3272222635214 0.999979388301278
2200.3294225918435 0.9999829556486709
2200.3316229223665 0.9999875621454364
2200.3338232550896 0.9999913571400584
2200.3360235900127 0.9999914917617253
2200.3382239271364 0.9999900927273296
2200.34042426646 0.9999893206577194
2200.342624607985 0.999989528193349
2200.3448249517096 0.9999906123553827
2200.3470252976344 0.9999922852754639
2200.34922564576 0.9999939394214692
2200.3514259960857 0.9999945338135771
2200.3536263486117 0.9999937442758334
2200.355826703338 0.9999924327858578
2200.3580270602647 0.9999908891909746
2200.3602274193922 0.9999880220323655
2200.36242778072 0.9999832883718918
2200.3646281442475 0.999978468538714
2200.3668285099757 0.9999748056633935
2200.3690288779044 0.9999724872463027
2200.371229248033 0.9999714984750604
2200.3734296203625 0.9999718369777486
2200.3756299948923 0.9999734689447712
2200.377830371622 0.9999762241357927
2200.3800307505526 0.9999793627073396
2200.3822311316835 0.999981498586697
2200.3844315150145 0.9999828884161374
2200.386631900546 0.9999846175370829
2200.388832288278 0.9999864913872153
2200.3910326782106 0.9999877790625795
2200.3932330703433 0.999988790695582
2200.3954334646764 0.9999900671090468
2200.39763386121 0.9999905948157005
2200.399834259944 0.9999886697156196
2200.402034660878 0.9999858584723993
2200.404235064013 0.9999838893417383
2200.4064354693483 0.9999831789285243
2200.4086358768836 0.99998367318046
2200.4108362866195 0.9999850373339133
2200.413036698556 0.9999866845404092
2200.415237112693 0.9999882662809003
2200.4174375290304 0.999989774689254
2200.419637947568 0.9999895560698138
2200.421838368306 0.9999853396617667
2200.4240387912446 0.9999801473503397
2200.4262392163832 0.9999760635182724
2200.428439643723 0.9999733683330017
2200.430640073262 0.999972013702663
2200.432840505003 0.9999719796853708
2200.435040938943 0.9999732396231152
2200.4372413750843 0.9999756384085154
2200.4394418134257 0.999977995247202
2200.4416422539675 0.999977111564416
2200.4438426967104 0.9999744620825655
2200.4460431416533 0.999972620585488
2200.4482435887962 0.9999720483746071
2200.45044403814 0.9999727996005934
2200.452644489684 0.9999748851261183
2200.4548449434287 0.9999783436544634
2200.457045399374 0.9999831652247575
2200.4592458575194 0.9999888239667389
2200.4614463178655 0.9999940947576325
2200.463646780412 0.9999977381065365
2200.465847245159 0.9999994584918372
2200.468047712106 1.0
2200.470248181254 0.9999997106827077
2200.4724486526025 0.9999977340865475
2200.4746491261512 0.9999939565616364
2200.4768496019005 0.9999896383786893
2200.4790500798504 0.9999856893529407
2200.4812505600003 0.9999825499188966
2200.483451042351 0.9999803775932421
2200.4856515269025 0.9999791718259545
2200.487852013654 0.9999789294771839
2200.4900525026064 0.9999797157430788
2200.492252993759 0.9999816287182393
2200.494453487112 0.9999846531840292
2200.4966539826655 0.9999883288277688
2200.49885448042 0.9999916004605337
2200.5010549803746 0.9999939523522923
2200.5032554825298 0.9999957698873756
2200.5054559868854 0.9999965015532779
2200.5076564934416 0.9999953921428401
2200.5098570021983 0.9999934266172492
2200.5120575131555 0.9999913421823087
2200.514258026313 0.9999887561921088
2200.5164585416715 0.9999855289373614
2200.5186590592302 0.9999824920311202
2200.5208595789895 0.9999803814714628
2200.5230601009494 0.9999794357659263
2200.5252606251097 0.9999795069550896
2200.5274611514706 0.9999796098327505
2200.529661680032 0.9999780310829585
2200.531862210794 0.9999755702771634
2200.5340627437563 0.9999738230024757
2200.5362632789193 0.9999731060954032
2200.5384638162827 0.9999729517243634
2200.5406643558467 0.9999723191592969
2200.5428648976113 0.9999709896150557
2200.5450654415763 0.9999698792473504
2200.547265987742 0.9999695627099059
2200.549466536108 0.9999701856912443
2200.5516670866746 0.9999717569557055
2200.553867639442 0.9999741301123558
2200.55606819441 0.9999763100990705
2200.5582687515785 0.9999760912023373
2200.560469310947 0.9999744404470917
2200.562669872517 0.9999734270302892
2200.564870436287 0.9999736168483574
2200.5670710022578 0.9999751246470701
2200.5692715704286 0.9999780063322727
2200.571472140801 0.9999820831261971
2200.573672713373 0.9999850363171359
2200.575873288146 0.9999838187501732
2200.578073865119 0.9999819298976176
2200.5802744442935 0.9999812277810901
2200.5824750256684 0.9999819067941725
2200.5846756092433 0.9999839181239577
2200.586876195019 0.9999869634337579
2200.5890767829956 0.999990209444882
2200.5912773731725 0.9999927066055189
2200.59347796555 0.9999944160558701
2200.5956785601284 0.9999953164898929
2200.597879156907 0.9999950968015906
2200.6000797558863 0.9999941827159251
2200.6022803570663 0.9999930613493244
2200.604480960447 0.9999915609685956
2200.6066815660283 0.9999891529368511
2200.60888217381 0.9999861645303258
2200.611082783792 0.9999836342114283
2200.613283395975 0.9999822093350785
2200.6154840103586 0.9999821003397945
2200.617684626943 0.9999833503617398
2200.619885245728 0.9999859161757408
2200.6220858667134 0.9999895513664194
2200.6242864898995 0.9999934672504482
2200.626487115286 0.9999958413954311
2200.6286877428734 0.9999955351713578
2200.6308883726615 0.9999939755717636
2200.63308900465 0.9999924353809838
2200.6352896388394 0.9999913966950601
2200.637490275229 0.9999910170424775
2200.63969091382 0.9999913293277624
2200.641891554611 0.9999922318713937
2200.6440921976027 0.9999933385095402
2200.646292842795 0.9999940132205161
2200.6484934901882 0.9999938488094013
2200.650694139782 0.9999927924704893
2200.6528947915763 0.9999911998399698
2200.655095445571 0.9999897934782224
2200.657296101767 0.9999890085042444
2200.659496760163 0.9999888384257478
2200.66169742076 0.9999891310638815
2200.663898083558 0.9999898695054797
2200.6660987485557 0.9999911004276605
2200.668299415755 0.9999926359479339
2200.6705000851543 0.9999937012129245
2200.6727007567547 0.999992526415608
2200.6749014305556 0.999989050800117
2200.677102106557 0.9999855569300155
2200.67930278476 0.9999831760625173
2200.6815034651627 0.9999821744221467
2200.6837041477665 0.999982584934778
2200.685904832571 0.9999843856412588
2200.6881055195763 0.9999874618865671
2200.6903062087817 0.9999914162691937
2200.6925069001886 0.9999952229825665
2200.6947075937956 0.9999971477271572
2200.6969082896035 0.9999966429135013
2200.699108987612 0.9999948946553675
2200.701309687821 0.9999930275477692
2200.7035103902313 0.9999916646763634
2200.7057110948417 0.9999909150447505
2200.707911801653 0.9999902070823408
2200.710112510665 0.9999880181082841
2200.7123132218776 0.9999834191151364
2200.7145139352915 0.9999781909067953
2200.7167146509055 0.9999739584485222
2200.7189153687204 0.9999710272041947
2200.721116088736 0.999969404290891
2200.7233168109524 0.9999691172300356
2200.72551753537 0.9999701755202933
2200.7277182619873 0.9999725622755443
2200.729918990806 0.999976291512242
2200.7321197218253 0.9999813995456031
2200.7343204550452 0.9999871320244893
2200.736521190466 0.9999909545928124
2200.7387219280877 0.9999919231920774
2200.7409226679097 0.9999920834896241
2200.7431234099327 0.9999923644165626
2200.7453241541566 0.9999925795652101
2200.747524900581 0.9999923547860278
2200.749725649206 0.9999917994869729
2200.751926400032 0.9999912259640656
2200.754127153059 0.9999906153327554
2200.7563279082865 0.9999896970806357
2200.7585286657145 0.9999884218577682
2200.7607294253435 0.9999870430092981
2200.7629301871734 0.9999859367102282
2200.765130951204 0.9999854765248973
2200.767331717435 0.9999857792943234
2200.769532485867 0.9999864027464264
2200.7717332565 0.9999864363636245
2200.7739340293333 0.9999857083768016
2200.7761348043678 0.9999848575308378
2200.7783355816027 0.9999841846409993
2200.7805363610387 0.9999837432446252
2200.782737142675 0.999983714230573
2200.7849379265126 0.9999843673626997
2200.787138712551 0.999985907227573
2200.78933950079 0.99998836426852
2200.79154029123 0.9999913721818137
2200.7937410838704 0.9999937554826083
2200.795941878712 0.9999944214451427
2200.798142675754 0.9999942723211128
2200.800343474997 0.9999942728754851
2200.802544276441 0.9999944573681793
2200.804745080086 0.9999946913193335
2200.806945885931 0.9999951345621642
2200.8091466939773 0.999995954747044
2200.811347504224 0.9999968754157603
2200.813548316672 0.9999971335733139
2200.8157491313204 0.9999965419438235
2200.8179499481703 0.999995897420792
2200.8201507672206 0.9999957506941296
2200.8223515884715 0.9999961126030248
2200.8245524119234 0.9999967066808919
2200.826753237576 0.9999970348825316
2200.8289540654296 0.9999965787218825
2200.8311548954844 0.9999955448464884
2200.833355727739 0.9999946500498847
2200.8355565621955 0.9999942560284251
2200.8377573988523 0.9999941874203766
2200.83995823771 0.999993849819833
2200.842159078769 0.9999928544117167
2200.844359922028 0.9999915747185825
2200.8465607674884 0.9999905391965974
2200.8487616151497 0.999990013614351
2200.850962465012 0.9999901030901099
2200.853163317074 0.999990714752745
2200.855364171338 0.9999912668317347
2200.8575650278026 0.9999910128410471
2200.8597658864683 0.9999903394305205
2200.8619667473345 0.9999901730627428
2200.864167610401 0.9999909041073262
2200.8663684756693 0.999992411709847
2200.8685693431385 0.9999941613508423
2200.870770212808 0.9999954691309372
2200.8729710846787 0.9999961318574905
2200.87517195875 0.9999962924683388
2200.8773728350225 0.9999958372747323
2200.8795737134956 0.9999945822174446
2200.8817745941697 0.999992696319201
2200.8839754770443 0.9999905689795968
2200.8861763621203 0.9999885477254764
2200.888377249397 0.9999869292005856
2200.890578138875 0.9999860029271773
2200.8927790305534 0.9999860109210993
2200.8949799244324 0.9999870907147589
2200.897180820513 0.9999892374752078
2200.899381718794 0.9999922298852998
2200.901582619276 0.9999952862759901
2200.903783521959 0.9999964729079353
2200.905984426843 0.9999954302955691
2200.908185333928 0.9999942248270595
2200.9103862432135 0.9999937464604427
2200.9125871547003 0.9999939538813258
2200.9147880683877 0.9999944966619851
2200.916988984276 0.9999951230265792
2200.9191899023654 0.999995830445197
2200.921390822655 0.9999964240658602
2200.9235917451465 0.9999963955097143
2200.9257926698388 0.9999956810150498
2200.9279935967315 0.9999946623783333
2200.9301945258253 0.9999935359641238
2200.9323954571205 0.9999922395422345
2200.934596390616 0.9999902806136179
2200.936797326313 0.9999872169187323
2200.9389982642106 0.9999838847704372
2200.941199204309 0.9999813794984004
2200.9434001466084 0.9999801509154914
2200.945601091109 0.9999802875132315
2200.9478020378106 0.9999817756271075
2200.9500029867127 0.9999844868393735
2200.952203937816 0.9999879310557592
2200.9544048911207 0.9999909761759719
2200.9566058466257 0.9999922636243763
2200.958806804332 0.9999916942637765
2200.9610077642396 0.9999904702576408
2200.9632087263476 0.9999895746294086
2200.9654096906565 0.9999894274701446
2200.967610657167 0.9999900217206246
2200.969811625878 0.9999907677254034
2200.9720125967897 0.9999907416527773
2200.974213569903 0.999990107175768
2200.976414545217 0.9999897079773558
2200.9786155227316 0.9999898226829181
2200.980816502448 0.9999902624193006
2200.9830174843646 0.9999905009210049
2200.9852184684823 0.9999899024225263
2200.9874194548015 0.9999888004989805
2200.989620443321 0.9999881950088197
2200.991821434042 0.99998864224934
2200.994022426964 0.9999902081521266
2200.9962234220866 0.9999924942434562
2200.9984244194106 0.9999942628005491
2201.000625418935 0.9999941222100408
2201.002826420661 0.9999928125891434
2201.0050274245878 0.9999916167451381
2201.0072284307157 0.9999909279387773
2201.0094294390447 0.999990443658052
2201.0116304495746 0.9999892687579834
2201.0138314623055 0.9999869765369244
2201.0160324772373 0.9999844497482137
2201.01823349437 0.9999825900127762
2201.020434513704 0.9999817934127053
2201.022635535239 0.9999821790442813
2201.0248365589746 0.99998363860973
2201.027037584912 0.9999853913985363
2201.0292386130495 0.9999855008964703
2201.0314396433887 0.9999836627384285
2201.033640675929 0.9999817363913953
2201.03584171067 0.9999807160550237
2201.038042747612 0.9999808980956842
2201.0402437867556 0.9999823814999773
2201.0424448280996 0.9999851582293121
2201.044645871645 0.9999888763164776
2201.046846917391 0.9999917138324995
2201.0490479653386 0.9999906440441363
2201.051249015487 0.9999877224314132
2201.0534500678364 0.9999852773363332
2201.055651122387 0.9999839035675828
2201.0578521791385 0.9999837326968177
2201.0600532380913 0.9999846449220962
2201.062254299245 0.9999860292081314
2201.0644553626 0.999986476362123
2201.066656428156 0.9999849284236517
2201.0688574959127 0.9999822357491602
2201.0710585658708 0.9999797727216417
2201.07325963803 0.9999782375458135
2201.07546071239 0.9999778445769478
2201.077661788951 0.9999786503665419
2201.0798628677135 0.9999806197071442
2201.082063948677 0.9999833338505036
2201.0842650318414 0.9999853400171886
2201.086466117207 0.9999854043643494
2201.088667204773 0.9999842021069796
2201.090868294541 0.9999822758188447
2201.0930693865093 0.9999802472745254
2201.0952704806796 0.9999788827606115
2201.0974715770503 0.9999785691564839
2201.0996726756225 0.9999793729729822
2201.1018737763957 0.9999810811407833
2201.10407487937 0.9999830378255934
2201.1062759845454 0.9999844428550936
2201.1084770919215 0.9999853521231007
2201.110678201499 0.9999864189780502
2201.112879313278 0.9999880604138942
2201.1150804272575 0.9999901688839345
2201.1172815434384 0.999991492476669
2201.1194826618207 0.999990292661515
2201.1216837824036 0.9999878318440274
2201.123884905188 0.9999858373456997
2201.1260860301736 0.9999847979536215
2201.12828715736 0.9999846362242464
2201.1304882867475 0.9999850152037798
2201.132689418336 0.9999855277560273
2201.1348905521263 0.9999856647563166
2201.1370916881174 0.9999845124947632
2201.1392928263094 0.9999819580386403
2201.141493966703 0.9999793267687314
2201.1436951092974 0.9999775199849971
2201.145896254093 0.999976736115913
2201.1480974010897 0.9999768960521263
2201.1502985502875 0.9999777530106552
2201.1524997016863 0.9999786507382982
2201.1547008552866 0.9999783664820773
2201.1569020110883 0.9999769412208552
2201.159103169091 0.9999757856886965
2201.161304329294 0.9999755725124105
2201.163505491699 0.9999762305552246
2201.165706656305 0.9999771602866837
2201.1679078231123 0.999977735656723
2201.1701089921207 0.9999782520513011
