Atmospheric Species: CO
Metallicity: 10
C/O_Ratio: 0.5
Wavelength[nm] Flux_variation
2399.998438414741 1.0
2400.0008384143794 0.9999999998525629
2400.0032384164174 0.9999999997012475
2400.005638420856 0.9999999995459682
2400.008038427694 0.9999999993866454
2400.0104384369324 0.9999999992231683
2400.0128384485706 0.9999999990554652
2400.015238462609 0.9999999988834222
2400.0176384790475 0.999999998706956
2400.0200384978857 0.9999999985259463
2400.022438519124 0.9999999983402954
2400.0248385427626 0.9999999981499007
2400.0272385688013 0.9999999979546308
2400.0296385972397 0.9999999977543693
2400.032038628078 0.999999997549011
2400.0344386613165 0.9999999973384097
2400.0368386969553 0.9999999971224425
2400.039238734994 0.9999999969009666
2400.041638775433 0.9999999966738458
2400.044038818271 0.999999996440918
2400.04643886351 0.999999996202045
2400.048838911149 0.9999999959570629
2400.0512389611877 0.9999999957057979
2400.0536390136267 0.9999999954480863
2400.0560390684655 0.9999999951837374
2400.0584391257044 0.9999999949125699
2400.060839185344 0.9999999946343824
2400.0632392473826 0.9999999943489678
2400.065639311822 0.9999999940561076
2400.068039378661 0.9999999937555931
2400.0704394479008 0.9999999934471686
2400.0728395195397 0.9999999931305971
2400.075239593579 0.9999999928056134
2400.077639670019 0.9999999924719474
2400.080039748859 0.9999999921293068
2400.0824398300983 0.9999999917773893
2400.084839913738 0.999999991415877
2400.087239999778 0.9999999910444406
2400.089640088218 0.999999990662707
2400.0920401790577 0.999999990270312
2400.094440272298 0.9999999898668388
2400.0968403679385 0.9999999894518726
2400.0992404659787 0.9999999890249466
2400.101640566419 0.9999999885855939
2400.1040406692596 0.9999999881332721
2400.1064407745002 0.9999999876674414
2400.108840882141 0.9999999871875025
2400.1112409921816 0.9999999866927942
2400.1136411046227 0.9999999861826361
2400.1160412194636 0.9999999856562681
2400.118441336705 0.9999999851128724
2400.120841456346 0.9999999845515442
2400.123241578388 0.999999983971314
2400.1256417028294 0.9999999833711137
2400.128041829671 0.999999982749751
2400.130441958913 0.9999999821059078
2400.1328420905547 0.9999999814380832
2400.135242224597 0.9999999807447375
2400.1376423610386 0.999999980024001
2400.140042499881 0.9999999792737896
2400.1424426411236 0.9999999784917724
2400.1448427847663 0.9999999776751528
2400.1472429308087 0.9999999768210156
2400.1496430792517 0.999999975925729
2400.152043230095 0.9999999749850785
2400.154443383338 0.9999999739941817
2400.1568435389813 0.9999999729471946
2400.159243697025 0.9999999718371533
2400.1616438574683 0.9999999706556277
2400.1640440203123 0.9999999693923162
2400.1664441855564 0.9999999680345052
2400.1688443532003 0.9999999665662718
2400.1712445232447 0.9999999649674578
2400.173644695689 0.999999963212081
2400.1760448705336 0.9999999612662166
2400.1784450477785 0.9999999590846205
2400.1808452274236 0.9999999566057437
2400.1832454094692 0.9999999537438268
2400.1856455939146 0.999999950376069
2400.18804578076 0.9999999463200963
2400.190445970006 0.9999999412958545
2400.1928461616517 0.9999999348457823
2400.1952463556977 0.9999999261740858
2400.1976465521443 0.9999999137235502
2400.200046750991 0.9999998938964578
2400.202446952238 0.9999998566993092
2400.204847155885 0.9999997724388452
2400.2072473619323 0.9999995646401426
2400.2096475703793 0.9999991006190647
2400.212047781227 0.9999983178758675
2400.2144479944745 0.999997536844447
2400.2168482101224 0.99999740675254
2400.219248428171 0.9999980585770023
2400.221648648619 0.9999988954709415
2400.224048871468 0.999999453347252
2400.226449096717 0.9999997169429761
2400.228849324366 0.9999998223571683
2400.2312495544156 0.9999998647746255
2400.233649786865 0.9999998842299314
2400.2360500217146 0.9999998943890611
2400.238450258965 0.999999899966147
2400.240850498615 0.9999999028745775
2400.2432507406656 0.9999999040393855
2400.2456509851163 0.999999903960501
2400.2480512319676 0.9999999029238015
2400.2504514812185 0.9999999010917417
2400.2528517328706 0.9999998985492142
2400.2552519869223 0.9999998953247351
2400.257652243374 0.9999998914000214
2400.2600525022262 0.9999998867103446
2400.262452763479 0.9999998811368461
2400.2648530271317 0.9999998744890127
2400.2672532931847 0.9999998664708246
2400.2696535616383 0.9999998566212541
2400.272053832492 0.9999998441940704
2400.2744541057455 0.9999998279239911
2400.2768543813995 0.9999998054696765
2400.279254659454 0.9999997719360917
2400.281654939909 0.9999997154091702
2400.284055222764 0.999999603685513
2400.2864555080196 0.9999993527095912
2400.288855795675 0.9999987858902317
2400.2912560857308 0.9999977134713794
2400.293656378187 0.9999964131051919
2400.2960566730435 0.9999959312465713
2400.2984569703003 0.9999967883006158
2400.3008572699573 0.9999980949936501
2400.3032575720144 0.9999989894893228
2400.3056578764727 0.9999994163256428
2400.30805818333 0.9999995922321792
2400.3104584925886 0.9999996632103028
2400.3128588042473 0.9999996905883455
2400.315259118306 0.9999996929675413
2400.317659434765 0.9999996656360428
2400.3200597536247 0.9999995871066476
2400.3224600748845 0.9999994358450638
2400.324860398545 0.9999992345836552
2400.3272607246054 0.9999990676338408
2400.329661053066 0.9999990248736512
2400.332061383927 0.9999991271380236
2400.3344617171883 0.9999993081368406
2400.3368620528504 0.9999994704034944
2400.3392623909126 0.9999995623425978
2400.341662731375 0.9999995941205405
2400.344063074238 0.9999995948601188
2400.346463419501 0.9999995827875177
2400.3488637671644 0.9999995648190262
2400.3512641172283 0.9999995429804892
2400.3536644696924 0.9999995178537084
2400.356064824557 0.9999994895137629
2400.358465181822 0.999999457813117
2400.3608655414873 0.9999994224647403
2400.363265903553 0.9999993830672332
2400.365666268019 0.9999993391037922
2400.3680666348855 0.99999928993055
2400.370467004152 0.9999992347523143
2400.372867375819 0.9999991725882734
2400.375267749887 0.9999991022225191
2400.377668126355 0.999999022140284
2400.380068505223 0.9999989304343766
2400.3824688864916 0.9999988246788178
2400.3848692701604 0.999998701740734
2400.38726965623 0.9999985574787402
2400.3896700446994 0.9999983863222902
2400.3920704355696 0.9999981803474185
2400.394470828841 0.9999979277621349
2400.3968712245114 0.9999976094663862
2400.3992716225825 0.9999971866228687
2400.4016720230543 0.9999965902817727
2400.404072425926 0.9999956524863906
2400.4064728311987 0.9999939939117171
2400.408873238872 0.9999910357276393
2400.411273648945 0.9999860113605381
2400.4136740614185 0.9999784016508726
2400.416074476293 0.9999707475855102
2400.4184748935677 0.9999693701433499
2400.4208753132425 0.9999757168379242
2400.423275735318 0.9999838636064944
2400.425676159794 0.9999897175512875
2400.42807658667 0.9999932277019404
2400.430477015947 0.9999952284668002
2400.432877447624 0.999996332330458
2400.435277881702 0.999997001728651
2400.43767831818 0.9999974610446462
2400.440078757058 0.9999978043540904
2400.442479198337 0.9999980738944981
2400.444879642016 0.9999982920415689
2400.447280088096 0.9999984722607602
2400.449680536576 0.9999986234500381
2400.4520809874566 0.999998751772793
2400.4544814407377 0.9999988617723367
2400.4568818964194 0.9999989568573711
2400.4592823545017 0.9999990396555103
2400.461682814984 0.9999991122286022
2400.4640832778673 0.9999991762131353
2400.4664837431505 0.999999232922118
2400.4688842108344 0.9999992834201021
2400.471284680919 0.999999328576347
2400.4736851534035 0.9999993691066902
2400.476085628289 0.9999994056018268
2400.4784861055746 0.9999994385454882
2400.480886585261 0.9999994683142313
2400.4832870673476 0.9999994951164434
2400.485687551835 0.9999995187662895
2400.4880880387227 0.9999995382213038
2400.490488528011 0.9999995516935017
2400.4928890196993 0.9999995598548329
2400.495289513789 0.99999957009807
2400.4976900102783 0.9999995898975413
2400.5000905091683 0.9999996153854054
2400.5024910104594 0.9999996379660686
2400.5048915141506 0.9999996551261033
2400.5072920202424 0.9999996686048248
2400.5096925287344 0.9999996801259856
2400.512093039627 0.9999996904867553
2400.5144935529206 0.9999996999931668
2400.516894068614 0.9999997087794383
2400.519294586708 0.9999997169257023
2400.521695107203 0.999999724491486
2400.524095630098 0.9999997315258472
2400.526496155394 0.9999997380710341
2400.5288966830904 0.9999997441641253
2400.531297213187 0.9999997498381589
2400.5336977456845 0.9999997551227049
2400.5360982805823 0.9999997600443696
2400.5384988178807 0.999999764627008
2400.5408993575797 0.9999997688924198
2400.54329989968 0.999999772860206
2400.5457004441796 0.9999997765479993
2400.54810099108 0.9999997799719142
2400.5505015403814 0.9999997831463346
2400.552902092083 0.9999997860842843
2400.5553026461853 0.9999997887973462
2400.557703202688 0.9999997912957564
2400.560103761591 0.9999997935888311
2400.5625043228956 0.9999997956843601
2400.5649048866 0.9999997975890323
2400.5673054527047 0.9999997993083186
2400.56970602121 0.9999998008463774
2400.5721065921166 0.9999998022063252
2400.5745071654233 0.9999998033895579
2400.576907741131 0.9999998043960572
2400.579308319239 0.9999998052239543
2400.5817088997474 0.9999998058693378
2400.5841094826565 0.9999998063258129
2400.586510067966 0.9999998065840934
2400.5889106556765 0.999999806630937
2400.5913112457874 0.9999998064487211
2400.5937118382985 0.9999998060135543
2400.5961124332107 0.9999998052936743
2400.5985130305235 0.9999998042466199
2400.6009136302364 0.9999998028154137
2400.6033142323504 0.9999998009227309
2400.605714836865 0.9999997984620966
2400.6081154437798 0.9999997952843929
2400.6105160530956 0.9999997911755716
2400.6129166648116 0.9999997858183904
2400.6153172789286 0.9999997787297321
2400.617717895446 0.999999769129447
2400.620118514364 0.9999997556760201
2400.622519135683 0.9999997357884179
2400.6249197594025 0.9999997035928977
2400.627320385522 0.9999996431406821
2400.629721014043 0.9999995107367288
2400.632121644964 0.9999992153197083
2400.634522278286 0.9999986580957733
2400.6369229140087 0.9999978729968234
2400.6393235521314 0.999997143402716
2400.641724192655 0.9999968840228282
2400.6441248355795 0.9999972708280417
2400.646525480905 0.9999980460395284
2400.6489261286306 0.9999987967834792
2400.651326778757 0.9999992931292909
2400.6537274312836 0.9999995431631835
2400.6561280862115 0.9999996531130796
2400.6585287435396 0.9999997039973955
2400.6609294032687 0.9999997315545809
2400.6633300653984 0.9999997485646861
2400.665730729929 0.999999759878298
2400.6681313968597 0.9999997677162447
2400.6705320661913 0.9999997732673513
2400.6729327379235 0.9999997772380761
2400.6753334120563 0.9999997800761076
2400.67773408859 0.9999997820866091
2400.680134767524 0.9999997834780314
2400.682535448859 0.9999997843374232
2400.684936132595 0.9999997847644809
2400.6873368187316 0.9999997848318642
2400.6897375072685 0.9999997845934047
2400.6921381982065 0.9999997840889503
2400.694538891545 0.9999997833484748
2400.6969395872843 0.9999997823935977
2400.699340285424 0.9999997812411432
2400.7017409859645 0.9999997799019871
2400.704141688906 0.9999997783833825
2400.706542394248 0.9999997766890272
2400.708943101991 0.9999997748194676
2400.711343812134 0.9999997721565871
2400.713744524678 0.9999997695419234
2400.716145239623 0.9999997669388365
2400.7185459569682 0.9999997642314425
2400.7209466767144 0.9999997613673146
2400.7233473988613 0.9999997582834868
2400.7257481234087 0.9999997549339615
2400.7281488503572 0.9999997512859606
2400.7305495797063 0.9999997472975415
2400.7329503114565 0.9999997429158112
2400.735351045607 0.9999997380728256
2400.7377517821583 0.999999732680877
2400.7401525211103 0.9999997266248518
2400.742553262463 0.9999997197518466
2400.7449540062166 0.9999997118549239
2400.747354752371 0.999999702647915
2400.749755500926 0.9999996917254986
2400.752156251882 0.9999996784919082
2400.754557005238 0.9999996620526546
2400.7569577609956 0.9999996409740121
2400.7593585191535 0.9999996128124955
2400.7617592797124 0.9999995729268328
2400.764160042672 0.99999951112645
2400.7665608080324 0.9999994021786152
2400.7689615757936 0.9999991879540032
2400.7713623459554 0.999998775083233
2400.7737631185178 0.9999981081670046
2400.776163893481 0.9999972901396847
2400.7785646708453 0.9999966025759859
2400.7809654506104 0.999996360758253
2400.783366232776 0.9999966875083125
2400.7857670173426 0.999997416167164
2400.78816780431 0.9999982203686164
2400.790568593678 0.9999988411487524
2400.792969385447 0.9999992070377849
2400.795370179617 0.999999389457875
2400.797770976187 0.9999994791430412
2400.8001717751586 0.9999995277728502
2400.8025725765306 0.9999995569531982
2400.8049733803036 0.9999995754820067
2400.8073741864773 0.9999995874612616
2400.8097749950516 0.9999995950906457
2400.8121758060265 0.9999995996746835
2400.8145766194034 0.9999996020316528
2400.81697743518 0.9999996027070842
2400.819378253358 0.9999996020717055
2400.821779073937 0.9999996003859117
2400.8241798969157 0.9999995978368338
2400.826580722296 0.999999594561031
2400.828981550077 0.9999995906597289
2400.831382380259 0.9999995862083108
2400.8337832128414 0.9999995812637331
2400.8361840478256 0.9999995758686916
2400.8385848852095 0.9999995700551249
2400.8409857249944 0.9999995638467745
2400.843386567181 0.9999995572607976
2400.8457874117676 0.9999995503087998
2400.8481882587557 0.999999542998248
2400.850589108144 0.9999995353328305
2400.8529899599334 0.9999995273130438
2400.855390814124 0.9999995189362415
2400.857791670715 0.9999995101971431
2400.860192529707 0.9999995010877782
2400.8625933911 0.9999994915973415
2400.8649942548936 0.9999994817119232
2400.867395121088 0.9999994714138404
2400.8697959896836 0.999999460680034
2400.87219686068 0.9999994494819603
2400.8745977340773 0.9999994377816885
2400.876998609875 0.999999425527141
2400.8793994880743 0.9999994126444135
2400.8818003686742 0.999999399019557
2400.8842012516748 0.9999993844625809
2400.8866021370764 0.9999993686085623
2400.889003024879 0.9999993506002559
2400.8914039150823 0.9999993279418353
2400.8938048076866 0.9999992930018319
2400.8962057026915 0.9999992266743791
2400.8986066000975 0.9999991003828379
2400.9010074999046 0.9999989123009253
2400.9034084021123 0.9999987383537223
2400.9058093067215 0.9999986938204728
2400.908210213731 0.9999988020767135
2400.9106111231413 0.9999989629841283
2400.9130120349528 0.9999990754372963
2400.9154129491653 0.9999991201646483
2400.917813865779 0.9999991241406018
2400.9202147847927 0.9999991111398133
2400.9226157062076 0.9999990916183022
2400.925016630024 0.9999990689968834
2400.927417556241 0.999999044330549
2400.929818484859 0.9999990179802353
2400.932219415878 0.9999989900762402
2400.934620349298 0.999998960652107
2400.9370212851186 0.9999989296913426
2400.93942222334 0.9999988971464494
2400.9418231639625 0.9999988629491305
2400.944224106986 0.9999988270143398
2400.9466250524106 0.9999987892433642
2400.949026000236 0.9999987495238026
2400.9514269504625 0.9999987077305735
2400.95382790309 0.9999986637242237
2400.956228858118 0.9999986173526811
2400.9586298155473 0.9999985684464338
2400.9610307753774 0.9999985168202883
2400.963431737609 0.9999984622709838
2400.9658327022407 0.999998404550285
2400.968233669274 0.9999983434467977
2400.9706346387084 0.9999982772145638
2400.9730356105433 0.9999982056568111
2400.975436584779 0.9999981301787161
2400.9778375614164 0.9999980503114382
2400.980238540454 0.9999979655169627
2400.9826395218934 0.9999978753419722
2400.985040505733 0.999997779150139
2400.987441491974 0.9999976762771186
2400.989842480616 0.9999975659690237
2400.9922434716586 0.9999974473713712
2400.9946444651027 0.9999973195007084
2400.9970454609474 0.9999971812305118
2400.999446459193 0.9999970312573488
2401.00184745984 0.999996868076572
2401.004248462888 0.9999966899329379
2401.006649468337 0.9999964947759027
2401.009050476187 0.9999962801842913
2401.0114514864376 0.9999960432527537
2401.0138524990894 0.9999957804215026
2401.0162535141426 0.9999954872054653
2401.0186545315964 0.9999951578070824
2401.0210555514514 0.999994784528476
2401.0234565737073 0.9999943569890155
2401.025857598364 0.9999938612165675
2401.028258625422 0.999993278024553
2401.030659654881 0.9999925809851005
2401.0330606867415 0.9999917281096029
2401.0354617210023 0.9999906336198116
2401.0378627576647 0.9999890503075098
2401.0402637967277 0.9999860395294404
2401.042664838192 0.9999769889576324
2401.0450658820573 0.9999408796015564
2401.0474669283235 0.9998369232171023
2401.0498679769908 0.9996999134598904
2401.052269028059 0.9996442960269686
2401.054670081529 0.9997103809980864
2401.0570711373994 0.9998493020443338
2401.059472195671 0.9999464107529451
2401.0618732563435 0.9999784014767311
2401.064274319417 0.9999864349021311
2401.0666753848914 0.9999892292253276
2401.0690764527676 0.9999907478189738
2401.0714775230445 0.9999918144909933
2401.0738785957224 0.999992650953195
2401.076279670802 0.9999933364672571
2401.0786807482814 0.9999939109291277
2401.081081828163 0.9999943999079884
2401.083482910445 0.9999948220548405
2401.0858839951284 0.999995190967947
2401.088285082213 0.9999955167553867
2401.0906861716985 0.9999958069095276
2401.0930872635854 0.9999960670909033
2401.095488357873 0.9999963016850659
2401.097889454562 0.9999965141803573
2401.100290553651 0.9999967074309275
2401.1026916551423 0.9999968838146921
2401.1050927590345 0.999997045349366
2401.107493865328 0.9999971937553775
2401.1098949740217 0.9999973305131896
2401.112296085117 0.9999974568982564
2401.114697198614 0.9999975740112235
2401.1170983145116 0.9999976828076389
2401.1194994328107 0.9999977841128561
2401.12190055351 0.9999978786488433
2401.1243016766116 0.9999979670444155
2401.1267028021134 0.9999980498913793
2401.1291039300168 0.9999981275926982
2401.131505060321 0.9999982006201651
2401.1339061930266 0.9999982693591245
2401.1363073281336 0.9999983341500643
2401.138708465641 0.9999983953184299
2401.14110960555 0.999998453099555
2401.14351074786 0.999998507762408
2401.1459118925713 0.9999985595332982
2401.1483130396837 0.999998608616905
2401.150714189197 0.9999986551993875
2401.153115341112 0.9999986994515291
2401.1555164954275 0.9999987415289351
2401.1579176521445 0.9999987815745042
2401.160318811263 0.9999988197197245
2401.1627199727823 0.9999988560845758
2401.1651211367025 0.9999988907806765
2401.1675223030243 0.9999989234817209
2401.169923471747 0.9999989530652896
2401.172324642871 0.9999989816223077
2401.174725816396 0.9999990091513128
2401.1771269923224 0.9999990356679345
2401.17952817065 0.9999990611981668
2401.1819293513786 0.9999990857734434
2401.1843305345087 0.9999991094290349
2401.1867317200395 0.9999991322015379
2401.1891329079717 0.9999991541281618
2401.1915340983055 0.9999991752455614
2401.19393529104 0.9999991955903769
2401.196336486176 0.9999992151979169
2401.198737683713 0.9999992341028404
2401.201138883651 0.9999992523390837
2401.2035400859904 0.9999992699401387
2401.205941290731 0.9999992869392571
2401.2083424978728 0.9999993033707457
2401.210743707416 0.9999993192719253
2401.21314491936 0.9999993346869726
2401.215546133705 0.9999993496636846
2401.217947350452 0.9999993641323204
2401.2203485695995 0.9999993781159372
2401.2227497911485 0.9999993916357525
2401.225151015099 0.9999994047123814
2401.2275522414507 0.9999994173648067
2401.2299534702033 0.9999994296114231
2401.2323547013575 0.9999994414693039
2401.2347559349128 0.9999994529549286
2401.237157170869 0.9999994640835681
2401.239558409227 0.9999994748700956
2401.241959649986 0.9999994853282699
2401.244360893146 0.9999994954713033
2401.2467621387077 0.999999505271204
2401.2491633866703 0.999999513289725
2401.251564637034 0.9999995217605605
2401.253965889799 0.9999995302631423
2401.2563671449657 0.9999995386502732
2401.2587684025334 0.9999995468684238
2401.261169662502 0.9999995548969987
2401.263570924872 0.9999995627291429
2401.2659721896434 0.9999995703635075
2401.2683734568163 0.9999995778025531
2401.2707747263903 0.9999995850498413
2401.273175998366 0.9999995921101168
2401.2755772727423 0.9999995989884327
