Atmospheric Species: CO
Metallicity: 10000
C/O_Ratio: 1.5
Wavelength[nm] Flux_variation
2299.999916647247 0.9999994920065097
2300.0022166483136 0.9999995077588892
2300.00451665168 0.9999995231995091
2300.006816657347 0.9999995383333012
2300.0091166653133 0.9999995531650191
2300.0114166755798 0.9999995676991085
2300.0137166881464 0.9999995819398138
2300.016016703013 0.9999995958913996
2300.0183167201794 0.9999996095577516
2300.0206167396464 0.9999996229426066
2300.022916761413 0.9999996360496424
2300.0252167854796 0.9999996488824182
2300.0275168118465 0.9999996614443656
2300.0298168405134 0.999999673738526
2300.03211687148 0.9999996857684286
2300.0344169047466 0.9999996975367312
2300.0367169403135 0.9999997090466017
2300.0390169781804 0.9999997203007371
2300.0413170183474 0.9999997313016433
2300.043617060814 0.9999997420523601
2300.0459171055813 0.9999997525552793
2300.0482171526482 0.999999762812609
2300.0505172020153 0.9999997728267582
2300.0528172536824 0.9999997826005089
2300.0551173076497 0.9999997921353264
2300.057417363917 0.999999801433849
2300.059717422484 0.9999998104981686
2300.0620174833516 0.9999998193298757
2300.0643175465193 0.9999998279313318
2300.0666176119867 0.9999998363039676
2300.068917679754 0.9999998444502426
2300.0712177498217 0.9999998523712788
2300.0735178221894 0.9999998600692235
2300.075817896857 0.9999998675455307
2300.078117973825 0.9999998748018168
2300.080418053093 0.9999998818397536
2300.0827181346613 0.9999998886607063
2300.0850182185295 0.999999895266337
2300.0873183046974 0.9999999016578959
2300.0896183931654 0.999999907837077
2300.091918483934 0.9999999138047782
2300.0942185770023 0.9999999195625998
2300.096518672371 0.9999999251118168
2300.09881877004 0.9999999304537293
2300.1011188700086 0.9999999355894477
2300.1034189722773 0.9999999405199205
2300.105719076846 0.9999999452464761
2300.108019183715 0.9999999497704195
2300.110319292884 0.9999999540928494
2300.1126194043536 0.9999999582143853
2300.114919518123 0.9999999621365789
2300.1172196341927 0.9999999658597922
2300.119519752562 0.9999999693854882
2300.121819873232 0.9999999727145176
2300.124119996202 0.9999999758479302
2300.126420121472 0.9999999787862097
2300.128720249042 0.999999981530515
2300.131020378912 0.9999999840814529
2300.1333205110823 0.9999999864401837
2300.135620645553 0.9999999886071234
2300.1379207823234 0.9999999905833378
2300.140220921394 0.9999999923694496
2300.142521062765 0.9999999939660058
2300.144821206436 0.9999999953740475
2300.1471213524073 0.9999999965939722
2300.1494215006787 0.9999999976265669
2300.15172165125 0.9999999984722884
2300.154021804122 0.999999999132182
2300.1563219592936 0.9999999996062988
2300.158622116766 0.9999999998954205
2300.160922276538 1.0
2300.1632224386103 0.9999999999208625
2300.1655226029825 0.9999999996581144
2300.1678227696552 0.9999999992124229
2300.1701229386276 0.9999999985840964
2300.1724231099006 0.999999997773816
2300.174723283474 0.9999999967819452
2300.1770234593473 0.999999995608572
2300.1793236375206 0.9999999942543241
2300.1816238179945 0.9999999927195485
2300.183924000768 0.9999999910046047
2300.186224185842 0.9999999891096141
2300.1885243732163 0.9999999870350128
2300.1908245628906 0.9999999847809351
2300.1931247548655 0.9999999823476311
2300.19542494914 0.999999979735295
2300.197725145715 0.9999999769440935
2300.2000253445904 0.9999999739742926
2300.2023255457657 0.9999999708260686
2300.204625749241 0.9999999674992694
2300.2069259550167 0.9999999639941364
2300.209226163093 0.9999999603108991
2300.211526373469 0.999999956449023
2300.2138265861454 0.9999999524093048
2300.216126801122 0.999999948191048
2300.218427018399 0.9999999437945867
2300.220727237976 0.9999999392196738
2300.2230274598533 0.9999999344663053
2300.2253276840306 0.9999999295344889
2300.2276279105085 0.9999999244234509
2300.2299281392866 0.9999999191337485
2300.2322283703647 0.9999999136645972
2300.234528603743 0.9999999080160105
2300.236828839422 0.9999999021876219
2300.239129077401 0.9999998961791622
2300.24142931768 0.9999998899904676
2300.243729560259 0.9999998836206067
2300.2460298051387 0.9999998770695957
2300.2483300523186 0.9999998703367008
2300.2506303017985 0.999999863421541
2300.252930553579 0.9999998563237414
2300.2552308076597 0.9999998490425667
2300.2575310640404 0.9999998415771668
2300.2598313227218 0.999999833927202
2300.2621315837027 0.9999998260918127
2300.2644318469847 0.9999998180701947
2300.2667321125664 0.9999998098615369
2300.2690323804486 0.9999998014652955
2300.271332650631 0.99999979288006
2300.273632923114 0.9999997841053444
2300.275933197897 0.9999997751399035
2300.27823347498 0.9999997659827433
2300.2805337543637 0.9999997566326717
2300.2828340360475 0.9999997470884783
2300.2851343200314 0.9999997373491777
2300.287434606316 0.9999997274131179
2300.2897348949004 0.9999997172792674
2300.2920351857856 0.9999997069459915
2300.294335478971 0.9999996964117663
2300.2966357744563 0.9999996856752462
2300.298936072242 0.9999996747345588
2300.3012363723283 0.9999996635881724
2300.303536674715 0.9999996522339859
2300.3058369794016 0.9999996406705961
2300.3081372863885 0.9999996288955121
2300.310437595676 0.9999996169068939
2300.3127379072635 0.9999996047026579
2300.3150382211516 0.9999995922806196
2300.3173385373398 0.999999579638324
2300.319638855828 0.9999995667731989
2300.321939176617 0.9999995536828072
2300.3242394997064 0.9999995403645163
2300.326539825096 0.9999995268152087
2300.328840152786 0.9999995130323741
2300.3311404827764 0.9999994990128515
2300.3334408150668 0.999999484753364
2300.3357411496577 0.9999994702506897
2300.3380414865487 0.9999994555012137
2300.3403418257403 0.9999994405015717
2300.3426421672325 0.9999994252475957
2300.344942511025 0.9999994097357523
2300.347242857117 0.9999993939613292
2300.34954320551 0.99999937792066
2300.351843556203 0.9999993616092747
2300.3541439091973 0.9999993450218404
2300.356444264491 0.9999993281538198
2300.3587446220854 0.9999993110002242
2300.36104498198 0.9999992935553862
2300.3633453441753 0.9999992758136593
2300.365645708671 0.9999992577696225
2300.3679460754665 0.9999992394167116
2300.370246444563 0.9999992207483414
2300.372546815959 0.9999992017583327
2300.374847189656 0.9999991824391746
2300.377147565653 0.9999991627836516
2300.379447943951 0.9999991427839054
2300.381748324549 0.9999991224320073
2300.3840487074476 0.9999991017189948
2300.3863490926465 0.9999990806362405
2300.388649480146 0.9999990591740107
2300.3909498699454 0.9999990373224613
2300.393250262045 0.9999990150712104
2300.3955506564457 0.9999989924090373
2300.397851053146 0.999998969324731
2300.4001514521474 0.9999989458053392
2300.402451853449 0.9999989218383822
2300.4047522570504 0.9999988974102623
2300.407052662953 0.9999988725061303
2300.4093530711557 0.9999988471110121
2300.4116534816585 0.9999988212084104
2300.4139538944623 0.9999987947815683
2300.416254309566 0.9999987678121929
2300.4185547269703 0.9999987402808869
2300.420855146675 0.9999987121676123
2300.4231555686806 0.9999986834507314
2300.4254559929864 0.999998654107183
2300.4277564195922 0.9999986241124005
2300.430056848499 0.9999985934409462
2300.432357279706 0.9999985620647618
2300.4346577132137 0.9999985299548416
2300.4369581490214 0.9999984970793657
2300.4392585871296 0.999998463404654
2300.441559027538 0.9999984288948756
2300.4438594702474 0.9999983935108749
2300.446159915257 0.9999983572107074
2300.448460362567 0.9999983199491471
2300.4507608121776 0.9999982816769973
2300.453061264089 0.9999982423409561
2300.4553617183 0.9999982018828032
2300.4576621748115 0.9999981602395662
2300.459962633624 0.9999981173417531
2300.462263094737 0.9999980731141042
2300.46456355815 0.9999980274741326
2300.4668640238638 0.9999979803311515
2300.469164491878 0.9999979315859817
2300.4714649621924 0.9999978811295749
2300.473765434808 0.999997828817632
2300.4760659097233 0.9999977745559012
2300.4783663869393 0.9999977181854406
2300.480666866456 0.9999976595339019
2300.4829673482727 0.9999975983972904
2300.4852678323905 0.9999975345655506
2300.4875683188084 0.9999974676780778
2300.489868807527 0.9999973971876427
2300.492169298546 0.9999973226059746
2300.4944697918654 0.999997244161489
2300.496770287485 0.9999971625135617
2300.499070785406 0.9999970772160693
2300.5013712856266 0.9999969866221733
2300.503671788148 0.999996889388998
2300.50597229297 0.999996784830335
2300.5082728000925 0.9999966722077436
2300.5105733095156 0.9999965503809932
2300.512873821239 0.9999964178003294
2300.515174335263 0.9999962724623235
2300.5174748515874 0.9999961117551935
2300.5197753702128 0.9999959321538681
2300.5220758911382 0.9999957287978777
2300.5243764143643 0.9999954945411879
2300.526676939891 0.9999952173078371
2300.5289774677176 0.9999948504025793
2300.5312779978453 0.9999939222131856
2300.5335785302736 0.999989275530033
2300.5358790650025 0.9999800437110579
2300.5381796020315 0.9999731723689942
2300.5404801413615 0.9999681620903018
2300.5427806829916 0.9999651345973243
2300.545081226923 0.9999642018351436
2300.547381773154 0.9999653963192752
2300.5496823216863 0.9999686762718026
2300.5519828725187 0.9999739191525828
2300.5542834256516 0.9999810658664283
2300.556583981085 0.999990240418636
2300.5588845388197 0.9999941271511718
2300.5611850988544 0.9999949060616994
2300.5634856611896 0.9999952545251578
2300.5657862258254 0.9999955253630515
2300.5680867927617 0.9999957552864638
2300.570387361999 0.9999959553573267
2300.5726879335366 0.9999961323684655
2300.5749885073747 0.9999962909774733
2300.5772890835133 0.9999964345756054
2300.5795896619525 0.9999965656881368
2300.5818902426927 0.9999966862605878
2300.584190825733 0.9999967978232123
2300.586491411074 0.9999969016007937
2300.5887919987154 0.9999969985873003
2300.5910925886574 0.9999970895937165
2300.5933931809004 0.9999971752961225
2300.5956937754436 0.9999972562610885
2300.5979943722878 0.9999973329733619
2300.6002949714325 0.9999974058477011
2300.6025955728774 0.9999974752420803
2300.6048961766232 0.9999975414688446
2300.6071967826697 0.9999976048112897
2300.6094973910167 0.9999976654794213
2300.6117980016643 0.9999977236949511
2300.6140986146124 0.9999977796429953
2300.616399229861 0.9999978334916931
2300.618699847411 0.999997885398096
2300.6210004672607 0.999997935455035
2300.6233010894116 0.9999979838045041
2300.625601713863 0.9999980305542858
2300.6279023406146 0.9999980758018843
2300.630202969667 0.9999981196365594
2300.6325036010203 0.9999981621397518
2300.6348042346744 0.9999982033856848
2300.6371048706287 0.9999982434426303
2300.639405508884 0.9999982823727771
2300.6417061494394 0.99999832023352
2300.644006792296 0.9999983570773312
2300.646307437453 0.9999983929526836
2300.6486080849104 0.9999984279042158
2300.650908734669 0.999998461973148
2300.6532093867277 0.999998495197891
2300.6555100410874 0.9999985276140323
2300.6578106977477 0.9999985592551023
2300.660111356709 0.9999985901515012
2300.6624120179704 0.9999986203326653
2300.664712681533 0.9999986498253896
2300.667013347396 0.9999986786555751
2300.6693140155594 0.9999987068471913
2300.6716146860235 0.9999987344223727
2300.6739153587887 0.9999987614027236
2300.676216033854 0.9999987878081936
2300.6785167112203 0.9999988136574878
2300.680817390887 0.9999988389687348
2300.6831180728545 0.9999988637584573
2300.6854187571225 0.9999988880430064
2300.6877194436915 0.9999989118368272
2300.6900201325616 0.9999989351545489
2300.6923208237317 0.9999989580093739
2300.6946215172034 0.9999989804143351
2300.696922212975 0.9999990023814245
2300.6992229110474 0.9999990239218556
2300.7015236114207 0.9999990450466686
2300.7038243140946 0.999999065766297
2300.706125019069 0.9999990860903168
2300.7084257263446 0.9999991060282384
2300.7107264359206 0.9999991255889249
2300.713027147797 0.9999991447805264
2300.7153278619744 0.99999916361149
2300.7176285784526 0.9999991820892942
2300.719929297232 0.99999920022138
2300.722230018311 0.9999992180143369
2300.7245307416915 0.9999992354755661
2300.7268314673724 0.9999992526109748
2300.729132195354 0.9999992694269406
2300.7314329256365 0.9999992859289857
2300.73373365822 0.999999302123127
2300.7360343931036 0.9999993180144047
2300.7383351302883 0.9999993336080798
2300.740635869774 0.9999993489092701
2300.7429366115603 0.9999993639224838
2300.745237355647 0.9999993786524495
2300.7475381020345 0.9999993931033294
2300.749838850723 0.99999940727972
2300.7521396017123 0.9999994211851548
2300.7544403550023 0.9999994348236965
2300.756741110593 0.999999448199388
2300.759041868484 0.999999461315406
2300.761342628676 0.9999994741755828
2300.7636433911694 0.9999994867829346
2300.765944155963 0.9999994991409114
2300.7682449230574 0.999999511252533
2300.7705456924527 0.9999995231205605
2300.7728464641486 0.9999995347482226
2300.7751472381456 0.9999995461379407
2300.777448014443 0.9999995572927044
2300.7797487930416 0.9999995682152226
2300.7820495739406 0.9999995789076017
2300.7843503571403 0.999999589372203
2300.786651142641 0.9999995996118237
2300.788951930442 0.9999996096285395
2300.7912527205444 0.9999996194242625
2300.7935535129477 0.9999996290013392
2300.7958543076516 0.999999638361935
2300.7981551046564 0.9999996475077765
2300.8004559039614 0.9999996564410569
2300.802756705568 0.9999996651631604
2300.805057509475 0.9999996736762933
2300.8073583156824 0.9999996819820501
2300.809659124191 0.9999996900822071
2300.8119599350007 0.999999697978382
2300.814260748111 0.9999997056722342
2300.816561563522 0.9999997131649185
2300.818862381234 0.9999997204584519
2300.8211632012467 0.9999997275538521
2300.82346402356 0.9999997344529581
2300.8257648481745 0.9999997411567282
2300.8280656750894 0.9999997476668099
2300.8303665043054 0.9999997539842655
2300.8326673358224 0.9999997601105611
2300.83496816964 0.999999766046772
2300.8372690057586 0.9999997717940067
2300.8395698441777 0.9999997773537361
2300.841870684898 0.999999782726759
2300.844171527919 0.99999978791439
2300.846472373241 0.9999997929173922
2300.8487732208637 0.9999997977370921
2300.8510740707875 0.999999802374476
2300.853374923012 0.9999998068304776
2300.855675777537 0.9999998111058714
2300.8579766343632 0.9999998152019717
2300.8602774934902 0.9999998191192613
2300.862578354918 0.9999998228588498
2300.8648792186464 0.9999998264216257
2300.867180084676 0.9999998298083144
2300.8694809530066 0.9999998330196286
2300.871781823638 0.9999998360565742
2300.87408269657 0.999999838919863
2300.8763835718028 0.9999998416100401
2300.878684449337 0.9999998441280064
2300.880985329172 0.9999998464744887
2300.883286211307 0.9999998486500162
2300.885587095744 0.9999998506553787
2300.887887982482 0.9999998524911506
2300.8901888715195 0.9999998541580015
2300.892489762859 0.9999998556564716
2300.8947906564986 0.9999998569870009
2300.89709155244 0.9999998581504137
2300.899392450682 0.9999998591472566
2300.901693351225 0.999999859977815
2300.9039942540685 0.9999998606428655
2300.9062951592127 0.9999998611427295
2300.9085960666584 0.9999998614778116
2300.910896976405 0.9999998616487682
2300.9131978884525 0.9999998616559669
2300.915498802801 0.9999998614996161
2300.9177997194497 0.9999998611804507
2300.9201006383996 0.9999998606987729
2300.9224015596506 0.9999998600545565
2300.9247024832025 0.9999998592486558
2300.9270034090555 0.9999998582810421
2300.9293043372095 0.9999998571523789
2300.931605267664 0.9999998558625298
2300.9339062004196 0.9999998544120494
2300.9362071354763 0.9999998528011474
2300.938508072834 0.9999998510299252
2300.9408090124925 0.9999998490988186
2300.9431099544518 0.999999847007943
2300.9454108987125 0.9999998447573213
2300.9477118452737 0.9999998423471984
2300.950012794136 0.9999998397778117
2300.9523137452993 0.9999998370491828
2300.9546146987636 0.999999834161392
2300.9569156545285 0.9999998311146152
2300.959216612595 0.9999998279088683
2300.961517572962 0.999999824544008
2300.96381853563 0.9999998210203739
2300.966119500599 0.9999998173376734
2300.968420467869 0.9999998134959287
2300.97072143744 0.9999998094953347
2300.9730224093114 0.9999998053354487
2300.975323383484 0.9999998010163131
2300.977624359958 0.9999997965379374
2300.9799253387328 0.99999979190008
2300.9822263198084 0.9999997871024113
2300.984527303185 0.9999997821448303
2300.986828288863 0.999999777027352
2300.9891292768416 0.9999997717494781
2300.991430267122 0.9999997663109196
2300.993731259702 0.9999997607113541
2300.9960322545835 0.9999997549506874
2300.9983332517663 0.9999997490283166
2301.00063425125 0.9999997429438807
2301.0029352530346 0.9999997366968719
2301.0052362571205 0.9999997302870529
2301.007537263507 0.999999723713921
2301.009838272195 0.9999997169766549
2301.0121392831834 0.9999997100750851
2301.0144402964734 0.99999970300843
2301.016741312064 0.9999996957758565
2301.0190423299555 0.9999996883770677
2301.0213433501485 0.9999996808110945
2301.023644372642 0.9999996730774688
2301.0259453974368 0.999999665174913
2301.028246424533 0.9999996571032022
2301.0305474539296 0.9999996488611373
2301.0328484856273 0.9999996404477346
2301.0351495196264 0.9999996318623817
2301.0374505559266 0.9999996231036284
2301.0397515945274 0.9999996141708584
2301.0420526354296 0.9999996050625588
2301.0443536786324 0.9999995957777964
2301.0466547241367 0.999999586315352
2301.048955771942 0.9999995766739579
2301.0512568220483 0.9999995668522597
2301.0535578744552 0.9999995568488163
2301.0558589291636 0.9999995466623847
2301.058159986173 0.9999995362913676
2301.0604610454834 0.9999995257340718
2301.062762107095 0.9999995149891803
2301.0650631710073 0.9999995040545019
2301.067364237221 0.9999994929287113
2301.0696653057357 0.9999994816096867
2301.0719663765517 0.9999994700955731
2301.0742674496682 0.9999994583843542
2301.0765685250863 0.9999994464741073
2301.0788696028053 0.9999994343621741
2301.0811706828254 0.9999994220467782
2301.0834717651464 0.9999994095254146
2301.085772849769 0.9999993967954521
2301.088073936692 0.9999993838544167
2301.0903750259167 0.9999993706998268
2301.092676117442 0.999999357328543
2301.0949772112685 0.9999993437378271
2301.097278307396 0.9999993299248507
2301.0995794058254 0.9999993158863189
2301.101880506555 0.9999993016187656
2301.104181609586 0.9999992871190942
2301.106482714918 0.9999992723835335
2301.1087838225512 0.9999992574085964
2301.1110849324855 0.9999992421903631
2301.1133860447208 0.9999992267245671
2301.1156871592575 0.9999992110073144
2301.117988276095 0.9999991950342814
2301.1202893952336 0.999999178800606
2301.1225905166734 0.9999991623019392
2301.1248916404143 0.9999991455328575
2301.1271927664566 0.9999991284885873
2301.1294938948 0.999999111163484
2301.131795025444 0.9999990935521653
2301.1340961583896 0.9999990756486251
2301.136397293636 0.9999990574465304
2301.138698431184 0.9999990389396458
2301.140999571033 0.9999990201210963
2301.1433007131827 0.9999990009837848
2301.145601857634 0.999998981520555
2301.1479030043865 0.9999989617233087
2301.15020415344 0.9999989415844089
2301.1525053047944 0.9999989210932029
2301.1548064584504 0.9999989002449536
2301.1571076144073 0.9999988790275617
2301.1594087726653 0.9999988574314165
2301.1617099332248 0.999998835446327
2301.1640110960852 0.999998813061348
2301.1663122612467 0.9999987902648352
2301.1686134287093 0.9999987670449116
2301.1709145984732 0.9999987433886318
2301.1732157705383 0.9999987192831277
2301.1755169449048 0.9999986947138105
2301.1778181215723 0.9999986696661172
2301.180119300541 0.9999986441244112
2301.182420481811 0.9999986180723116
2301.1847216653814 0.999998591492104
2301.187022851254 0.9999985643656327
2301.189324039427 0.9999985366732872
2301.1916252299015 0.9999985083944861
2301.1939264226776 0.9999984795072576
2301.1962276177546 0.9999984499884026
2301.1985288151327 0.9999984198131425
2301.200830014812 0.9999983889551735
2301.2031312167924 0.9999983573860264
2301.205432421074 0.9999983250758637
2301.207733627657 0.9999982919922173
2301.210034836541 0.9999982581002732
2301.2123360477262 0.9999982233626314
2301.214637261213 0.9999981877391131
2301.2169384770004 0.9999981511861784
2301.2192396950895 0.9999981136570893
2301.2215409154796 0.9999980751010191
