Atmospheric Species: CO
Metallicity: 10000
C/O_Ratio: 1.0
Wavelength[nm] Flux_variation
1599.9991319407557 0.9999994006679362
1600.0007319406875 0.999999282866847
1600.0023319422194 0.9999991484642122
1600.003931945351 0.9999989924049798
1600.005531950083 0.9999988049184365
1600.0071319564147 0.9999985616760123
1600.0087319643467 0.9999981952418614
1600.0103319738785 0.9999975575288422
1600.0119319850105 0.9999965252949116
1600.0135319977423 0.9999953363822246
1600.0151320120742 0.9999944120633226
1600.0167320280061 0.9999938942925133
1600.018332045538 0.9999937558520793
1600.01993206467 0.9999939437457341
1600.021532085402 0.9999943389029544
1600.023132107734 0.9999945789296227
1600.024732131666 0.9999940233608103
1600.0263321571979 0.9999922808853338
1600.02793218433 0.9999895207159808
1600.0295322130619 0.9999861538973147
1600.0311322433943 0.9999831290571721
1600.0327322753265 0.9999815779146864
1600.034332308859 0.9999818742119936
1600.0359323439911 0.9999839565449321
1600.0375323807234 0.9999872452727651
1600.039132419056 0.9999904688892186
1600.0407324589883 0.9999929674466409
1600.0423325005206 0.9999945252862315
1600.043932543653 0.999995415623428
1600.0455325883854 0.999995957598467
1600.047132634718 0.9999962994728114
1600.0487326826508 0.9999965042595516
1600.0503327321835 0.9999966051960387
1600.0519327833163 0.9999966228071666
1600.0535328360488 0.9999965699743539
1600.0551328903816 0.9999964543275534
1600.0567329463145 0.9999962802889181
1600.0583330038473 0.9999960506834039
1600.0599330629805 0.9999957645394677
1600.0615331237134 0.9999954088175016
1600.0631331860466 0.999994939445382
1600.0647332499796 0.9999942490688217
1600.066333315513 0.9999932375136807
1600.0679333826463 0.9999919605363831
1600.0695334513798 0.9999903947215043
1600.0711335217131 0.9999888196289413
1600.0727335936465 0.9999877565928482
1600.0743336671803 0.9999874394820382
1600.075933742314 0.9999879213350161
1600.0775338190476 0.9999891202511906
1600.0791338973813 0.9999907442013111
1600.0807339773153 0.999992257970241
1600.0823340588493 0.9999934974066202
1600.0839341419833 0.9999944700208095
1600.0855342267173 0.999995141237367
1600.0871343130518 0.9999956296911924
1600.0887344009861 0.9999960286338724
1600.0903344905205 0.9999963738089067
1600.0919345816546 0.9999966793609008
1600.0935346743893 0.9999969529133184
1600.095134768724 0.9999971996623945
1600.0967348646586 0.9999974233500362
1600.0983349621936 0.9999976270580752
1600.0999350613286 0.9999978132304995
1600.1015351620636 0.9999979838889497
1600.1031352643988 0.9999981407374321
1600.104735368334 0.9999982852241182
1600.1063354738692 0.9999984185930904
1600.1079355810048 0.9999985419155976
1600.1095356897404 0.9999986561293269
1600.111135800076 0.9999987620493309
1600.1127359120119 0.9999988603932871
1600.1143360255478 0.9999989517945721
1600.115936140684 0.9999990368148949
1600.11753625742 0.9999991159509629
1600.1191363757562 0.9999991896484527
1600.1207364956927 0.9999992583065447
1600.1223366172292 0.9999993222809299
1600.123936740366 0.9999993818978282
1600.1255368651025 0.9999994374431805
1600.1271369914393 0.9999994892005294
1600.1287371193764 0.9999995373739368
1600.1303372489135 0.999999582200976
1600.1319373800509 0.9999996238803177
1600.1335375127883 0.9999996626155876
1600.135137647126 0.999999698530315
1600.1367377830636 0.999999731801734
1600.138337920601 0.9999997625764727
1600.139938059739 0.9999997909741193
1600.141538200477 0.99999981712059
1600.1431383428153 0.9999998411290928
1600.1447384867536 0.9999998630988286
1600.146338632292 0.9999998831276351
1600.1479387794307 0.9999999013042166
1600.1495389281695 0.9999999177105848
1600.1511390785083 0.9999999324242493
1600.1527392304474 0.9999999455161974
1600.1543393839866 0.9999999570528217
1600.155939539126 0.9999999670966481
1600.1575396958654 0.9999999757050685
1600.159139854205 0.9999999829322246
1600.1607400141452 0.9999999888285243
1600.1623401756851 0.9999999934412823
1600.1639403388253 0.9999999968135977
1600.1655405035656 0.9999999989875389
1600.1671406699063 1.0
1600.1687408378468 0.9999999998878047
1600.1703410073876 0.9999999986837198
1600.1719411785289 0.9999999964186127
1600.17354135127 0.9999999931210237
1600.1751415256115 0.9999999888184768
1600.1767417015528 0.9999999835349336
1600.1783418790947 0.9999999772937583
1600.1799420582367 0.999999970116117
1600.1815422389786 0.9999999620212904
1600.183142421321 0.9999999530276563
1600.1847426052634 0.9999999431511136
1600.186342790806 0.9999999324066621
1600.187942977949 0.9999999208073262
1600.1895431666917 0.9999999083659195
1600.191143357035 0.9999998950917389
1600.1927435489783 0.999999880995466
1600.1943437425218 0.9999998660842787
1600.1959439376658 0.9999998503649626
1600.1975441344098 0.9999998338426007
1600.1991443327538 0.9999998165215331
1600.200744532698 0.999999798404518
1600.2023447342428 0.9999997794930018
1600.2039449373876 0.9999997597870843
1600.2055451421327 0.9999997392860253
1600.2071453484778 0.999999717984682
1600.2087455564233 0.9999996958850549
1600.2103457659687 0.9999996729788757
1600.2119459771145 0.9999996492592406
1600.2135461898606 0.9999996247180207
1600.215146404207 0.9999995993457228
1600.2167466201533 0.9999995731309759
1600.2183468377 0.9999995460612652
1600.2199470568469 0.9999995181217192
1600.221547277594 0.9999994892958692
1600.2231474999412 0.9999994595652898
1600.2247477238886 0.9999994289099244
1600.2263479494366 0.9999993973063684
1600.2279481765845 0.9999993647300763
1600.229548405333 0.9999993311537914
1600.2311486356812 0.9999992965468313
1600.2327488676299 0.9999992608766171
1600.2343491011789 0.9999992241067479
1600.235949336328 0.99999918619726
1600.2375495730776 0.9999991471064431
1600.2391498114273 0.9999991067858417
1600.240750051377 0.9999990651851642
1600.242350292927 0.9999990222476693
1600.2439505360774 0.9999989779129158
1600.245550780828 0.9999989321140771
1600.247151027179 0.9999988847786405
1600.2487512751302 0.9999988358277622
1600.2503515246815 0.9999987851744103
1600.251951775833 0.9999987327246663
1600.2535520285849 0.9999986783740835
1600.255152282937 0.9999986220103901
1600.2567525388893 0.9999985635099111
1600.2583527964418 0.9999985027357213
1600.2599530555947 0.999998439538931
1600.2615533163478 0.9999983737569602
1600.2631535787013 0.9999983052077659
1600.264753842655 0.9999982336939712
1600.266354108209 0.9999981589959304
1600.2679543753634 0.9999980808532354
1600.2695546441178 0.9999979990355169
1600.2711549144724 0.9999979132292234
1600.272755186427 0.9999978230970729
1600.2743554599824 0.9999977282935232
1600.2759557351378 0.9999976283767262
1600.2775560118935 0.9999975229582108
1600.2791562902496 0.9999974115089634
1600.2807565702058 0.9999972934740798
1600.2823568517624 0.9999971682291403
1600.2839571349193 0.9999970350883048
1600.2855574196763 0.9999968932772044
1600.287157706034 0.9999967419298477
1600.2887579939916 0.9999965800823589
1600.2903582835495 0.9999964066539856
1600.2919585747077 0.9999962204378463
1600.2935588674663 0.9999960200851729
1600.295159161825 0.999995804089916
1600.2967594577842 0.9999955707702938
1600.2983597553439 0.9999953182462892
1600.2999600545038 0.9999950444257489
1600.3015603552642 0.9999947469700663
1600.3031606576246 0.9999944232540386
1600.3047609615853 0.9999940702888189
1600.3063612671465 0.999993684669654
1600.307961574308 0.999993262148265
1600.3095618830696 0.9999927973774774
1600.3111621934315 0.9999922816324002
1600.3127625053937 0.9999916947057013
1600.3143628189562 0.9999909558405521
1600.315963134119 0.9999896985820401
1600.3175634508825 0.9999869664394603
1600.3191637692462 0.9999825089748097
1600.3207640892101 0.9999781370518686
1600.3223644107743 0.9999751273882347
1600.3239647339387 0.9999742579247265
1600.3255650587034 0.999975741848672
1600.3271653850686 0.9999792044577351
1600.3287657130343 0.9999837550744657
1600.3303660426002 0.9999878646366185
1600.3319663737664 0.9999900877785113
1600.3335667065328 0.9999911464431368
1600.3351670408995 0.9999918275177366
1600.3367673768666 0.999992379657653
1600.3383677144343 0.9999928593379539
1600.339968053602 0.9999932829482179
1600.3415683943701 0.9999936576680183
1600.3431687367386 0.9999939872637513
1600.3447690807075 0.9999942724186018
1600.3463694262766 0.9999945037154722
1600.3479697734463 0.9999946388920183
1600.349570122216 0.9999945823782105
1600.3511704725863 0.9999942843042828
1600.352770824557 0.9999938952173478
1600.3543711781278 0.9999936315356083
1600.355971533299 0.9999936085253599
1600.3575718900709 0.999993860486401
1600.3591722484427 0.999994362187011
1600.3607726084151 0.9999949785753031
1600.362372969988 0.9999954730594542
1600.363973333161 0.9999957391904676
1600.3655736979347 0.9999958569247344
1600.3671740643083 0.9999959128190082
1600.3687744322826 0.9999959429573293
1600.370374801857 0.9999959583016003
1600.3719751730318 0.9999959624790237
1600.3735755458074 0.9999959571615195
1600.375175920183 0.9999959432532441
1600.3767762961588 0.9999959213520099
1600.3783766737354 0.9999958917907994
1600.3799770529122 0.9999958547101655
1600.3815774336892 0.9999958100796219
1600.3831778160668 0.9999957576681215
1600.3847782000448 0.9999956970110794
1600.3863785856233 0.9999956271224237
1600.3879789728019 0.9999955457227849
1600.389579361581 0.9999954481004721
1600.3911797519606 0.9999953283196342
1600.3927801439404 0.9999951865443121
1600.3943805375209 0.9999950354971558
1600.3959809327016 0.9999948883386663
1600.3975813294826 0.9999947370036749
1600.399181727864 0.9999945534585633
1600.4007821278458 0.9999943073586038
1600.4023825294282 0.9999939538366532
1600.403982932611 0.9999933901939033
1600.405583337394 0.9999925114761419
1600.4071837437775 0.9999912737323329
1600.4087841517612 0.9999896791414732
1600.4103845613456 0.9999882137038028
1600.4119849725303 0.9999873483402151
1600.4135853853154 0.9999872607408284
1600.4151857997008 0.999987966093999
1600.4167862156867 0.999989325631483
1600.418386633273 0.9999909344589977
1600.4199870524599 0.9999922294389799
1600.421587473247 0.9999931194881694
1600.4231878956346 0.9999936646296816
1600.4247883196226 0.999993970366263
1600.4263887452112 0.9999941585862109
1600.4279891723997 0.9999942852757775
1600.4295896011893 0.9999943716927447
1600.431190031579 0.9999944053569545
1600.4327904635693 0.9999943651990312
1600.43439089716 0.999994309844222
1600.435991332351 0.9999942427146095
1600.4375917691425 0.9999941663000448
1600.4391922075345 0.9999940824278446
1600.4407926475267 0.9999939923766401
1600.4423930891194 0.9999938970369491
1600.4439935323126 0.9999937975102888
1600.4455939771065 0.9999936954705315
1600.4471944235006 0.999993592236144
1600.448794871495 0.9999934872916811
1600.4503953210901 0.999993378049529
1600.4519957722855 0.9999932612045701
1600.4535962250816 0.9999931367246946
1600.4551966794777 0.9999930129750276
1600.4567971354745 0.9999929016993278
1600.458397593072 0.9999928034146914
1600.4599980522696 0.9999927068028595
1600.4615985130679 0.9999926035038553
1600.4631989754666 0.9999924938176902
1600.4647994394659 0.9999923808905522
1600.4663999050654 0.999992266618418
1600.4680003722656 0.9999921516367044
1600.469600841066 0.9999920360928509
1600.471201311467 0.9999919200148748
1600.4728017834686 0.9999918033916313
1600.4744022570706 0.99999168620317
1600.476002732273 0.9999915684204603
1600.4776032090758 0.999991450006873
1600.4792036874794 0.9999913309190857
1600.480804167483 0.9999912111075971
1600.4824046490874 0.9999910905141729
1600.4840051322924 0.9999909690740991
1600.4856056170975 0.99999084671407
1600.4872061035032 0.999990723349535
1600.4888065915095 0.9999905988798432
1600.4904070811165 0.9999904732229916
1600.4920075723237 0.9999903462942533
1600.4936080651314 0.9999902181421292
1600.4952085595396 0.9999900892651666
1600.4968090555485 0.9999899611711934
1600.498409553158 0.9999898368152694
1600.5000100523673 0.999989714744382
1600.5016105531777 0.9999895873463487
1600.5032110555883 0.9999894526536176
1600.5048115595996 0.9999892947962774
1600.5064120652114 0.9999890888459952
1600.5080125724237 0.9999887909560493
1600.5096130812365 0.9999880669243806
1600.5112135916497 0.9999860840751644
1600.5128141036635 0.9999829045597037
1600.514414617278 0.9999802891501349
1600.5160151324926 0.9999793157670593
1600.517615649308 0.999980221447753
1600.519216167724 0.9999827526531891
1600.52081668774 0.9999856890895459
1600.522417209357 0.9999871117038521
1600.5240177325743 0.9999872807821482
1600.5256182573921 0.9999871281189705
1600.5272187838107 0.9999869110067171
1600.5288193118297 0.9999866615210974
1600.5304198414494 0.9999863798464561
1600.5320203726694 0.99998605993239
1600.5336209054901 0.9999856901208329
1600.535221439911 0.9999852363777886
1600.5368219759328 0.9999844772251819
1600.538422513555 0.9999822443059208
1600.5400230527775 0.9999770099387172
1600.5416235936007 0.9999701984128878
1600.5432241360245 0.9999648720219608
1600.5448246800486 0.9999619536195402
1600.5464252256736 0.9999612767784356
1600.5480257728989 0.9999628347502085
1600.5496263217249 0.9999666687293403
1600.5512268721513 0.9999728793692575
1600.5528274241785 0.9999793909025978
1600.5544279778062 0.9999834015161476
1600.5560285330344 0.9999848003168011
1600.557629089863 0.9999853689622148
1600.5592296482923 0.9999857736143608
1600.5608302083222 0.999986114987742
1600.5624307699525 0.9999864136529301
1600.5640313331835 0.9999866797686718
1600.565631898015 0.9999869202719164
1600.567232464447 0.999987140233002
1600.5688330324797 0.9999873433012025
1600.5704336021129 0.9999875323226938
1600.5720341733465 0.999987709639391
1600.5736347461807 0.99998787711525
1600.5752353206158 0.9999880362467065
1600.5768358966516 0.9999881882452822
1600.5784364742876 0.9999883340940519
1600.5800370535244 0.9999884745974332
1600.5816376343616 0.9999886104131666
1600.5832382167996 0.9999887420856646
1600.584838800838 0.999988870061217
1600.586439386477 0.9999889947093138
1600.5880399737164 0.9999891163406261
1600.5896405625567 0.9999892352237288
1600.5912411529978 0.999989351544004
1600.592841745039 0.9999894654964782
1600.5944423386811 0.9999895772290015
1600.5960429339236 0.9999896869208335
1600.5976435307668 0.9999897945804513
1600.5992441292105 0.9999899003184683
1600.600844729255 0.9999900042209822
1600.6024453309 0.9999901063421616
1600.6040459341457 0.9999902067287806
1600.6056465389918 0.9999903053887317
1600.6072471454384 0.9999904023369987
1600.6088477534856 0.999990497559813
1600.6104483631339 0.9999905910206224
1600.6120489743823 0.9999906826486342
1600.6136495872315 0.999990772324305
1600.6152502016814 0.9999908598610565
1600.6168508177318 0.9999909449605605
1600.6184514353831 0.9999910271471298
1600.6200520546347 0.9999911056332833
1600.621652675487 0.9999911790484767
1600.62325329794 0.9999912447876269
1600.6248539219935 0.9999912969564075
1600.6264545476477 0.9999913169493844
1600.6280551749023 0.9999912241664386
1600.629655803758 0.9999907061473269
1600.631256434214 0.999989188225731
1600.6328570662706 0.9999868498117518
1600.634457699928 0.9999849446622441
1600.636058335186 0.9999844631236379
1600.6376589720444 0.9999856207046456
1600.6392596105036 0.9999879140987943
1600.6408602505635 0.9999901839840593
1600.642460892224 0.9999914727256505
1600.644061535485 0.9999919685560736
1600.645662180347 0.9999921765937384
1600.6472628268093 0.9999923047840302
1600.6488634748723 0.9999924059592786
1600.6504641245363 0.9999924942033487
1600.6520647758005 0.9999925747036101
1600.6536654286656 0.9999926499561632
1600.6552660831312 0.999992721346323
1600.6568667391975 0.9999927897112895
1600.6584673968646 0.999992855583255
1600.6600680561323 0.9999929193148077
1600.6616687170006 0.9999929811470876
1600.6632693794695 0.999993041246392
1600.6648700435392 0.9999930997282525
1600.6664707092095 0.999993156668028
1600.6680713764806 0.9999932120879693
1600.6696720453522 0.9999932659167704
1600.6712727158244 0.9999933179619137
1600.6728733878974 0.999993368070515
1600.6744740615711 0.9999934165337774
1600.6760747368455 0.9999934642084464
1600.6776754137206 0.9999935117792
1600.6792760921962 0.9999935589622659
1600.6808767722728 0.9999936048489197
1600.6824774539498 0.9999936488445159
1600.6840781372273 0.9999936909358763
1600.6856788221057 0.9999937313289456
1600.6872795085849 0.9999937701570717
1600.6888801966645 0.999993807455093
1600.6904808863449 0.9999938432048311
1600.6920815776261 0.99999387736573
1600.693682270508 0.9999939098864121
1600.6952829649904 0.9999939407022255
1600.6968836610738 0.9999939697349222
1600.6984843587577 0.9999939968856928
1600.7000850580425 0.9999940220293617
1600.7016857589279 0.9999940449965113
1600.7032864614139 0.9999940655557095
1600.7048871655006 0.9999940833684784
1600.7064878711883 0.9999940979098615
1600.7080885784762 0.9999941082729302
1600.709689287365 0.9999941125627708
1600.7112899978547 0.9999941054101211
1600.712890709945 0.999994068143467
1600.714491423636 0.9999939436982455
1600.7160921389277 0.9999936282848484
1600.7176928558201 0.9999930951736913
1600.7192935743133 0.999992531113886
1600.7208942944071 0.9999921545762152
1600.7224950161017 0.9999920320377784
1600.724095739397 0.9999920751801362
1600.725696464293 0.9999920799934344
1600.7272971907898 0.9999919863988614
1600.7288979188872 0.9999920718890966
1600.7304986485856 0.9999925364653498
1600.7320993798846 0.9999931931444044
1600.7337001127844 0.9999937000729615
1600.7353008472849 0.9999939402312881
1600.736901583386 0.9999940127249866
1600.738502321088 0.999994018891909
1600.7401030603905 0.999994001572939
1600.741703801294 0.9999939733576539
1600.743304543798 0.9999939376474632
1600.744905287903 0.9999938954531852
1600.7465060336087 0.999993847037973
1600.748106780915 0.9999937923243265
1600.749707529822 0.9999937310156475
1600.7513082803298 0.9999936626310777
1600.7529090324385 0.999993586511797
1600.7545097861478 0.9999935017937212
1600.756110541458 0.9999934073618003
1600.7577112983688 0.9999933017751442
1600.7593120568806 0.9999931831313132
1600.760912816993 0.999993048936716
1600.7625135787061 0.9999928957372375
1600.76411434202 0.9999927185880998
1600.7657151069347 0.9999925096626121
1600.7673158734501 0.9999922535442582
1600.7689166415662 0.9999919097502681
1600.7705174112832 0.9999913774434114
1600.772118182601 0.9999905322689376
1600.7737189555196 0.9999893010026175
1600.7753197300387 0.9999876717049492
1600.7769205061588 0.9999861365557566
1600.7785212838796 0.9999851895164064
1600.7801220632014 0.9999850238212787
1600.7817228441238 0.9999856681586821
1600.7833236266472 0.9999869995038508
1600.7849244107708 0.9999886489550032
1600.7865251964956 0.9999899945249033
1600.7881259838211 0.9999908427546057
1600.7897267727474 0.9999912860051081
1600.7913275632745 0.9999914693341317
1600.7929283554026 0.9999915257241552
1600.7945291491314 0.9999915128034311
1600.7961299444607 0.9999914528226167
1600.797730741391 0.9999913571411199
1600.799331539922 0.9999912327956313
1600.8009323400538 0.999991084405194
1600.8025331417864 0.9999909149699326
1600.80413394512 0.9999907263300689
1600.8057347500542 0.9999905194249935
1600.8073355565894 0.9999902944162118
1600.8089363647252 0.9999900507397952
1600.810537174462 0.9999897868951733
1600.8121379857996 0.999989500272746
1600.813738798738 0.99998918614316
1600.8153396132773 0.9999888353210677
1600.8169404294174 0.9999884216971878
1600.8185412471582 0.9999878172114378
1600.8201420665 0.9999864878874274
1600.8217428874425 0.9999837933215667
1600.823343709986 0.9999802703048888
1600.82494453413 0.9999768236971699
1600.8265453598751 0.9999744449652931
1600.828146187221 0.9999739040566922
1600.8297470161676 0.9999753725429632
1600.831347846715 0.9999783774905765
1600.8329486788634 0.9999819769367513
1600.8345495126125 0.9999852256221512
1600.8361503479625 0.9999872629018033
1600.8377511849133 0.9999881473550493
1600.839352023465 0.9999886315683705
1600.8409528636175 0.9999890121800656
1600.8425537053706 0.999989347587139
1600.8441545487249 0.9999896530383569
1600.8457553936796 0.9999899355706032
