Atmospheric Species: CO2
Metallicity: 1
C/O_Ratio: 0.5
Wavelength[nm] Flux_variation
1199.9994359108223 1.0
1200.0006359108581 0.999999999787575
1200.001835912094 0.9999999995881536
1200.0030359145298 0.9999999994040736
1200.0042359181657 0.9999999992235319
1200.0054359230016 0.9999999990373171
1200.0066359290374 0.9999999988453876
1200.0078359362733 0.9999999986504678
1200.0090359447092 0.9999999984539527
1200.010235954345 0.999999998256123
1200.011435965181 0.9999999980575173
1200.0126359772169 0.9999999978597011
1200.013835990453 0.9999999976638793
1200.015036004889 0.9999999974692603
1200.0162360205247 0.9999999972742928
1200.0174360373605 0.9999999970784509
1200.0186360553967 0.9999999968820167
1200.0198360746326 0.9999999966853026
1200.021036095069 0.9999999964884536
1200.0222361167048 0.9999999962915245
1200.023436139541 0.9999999960945392
1200.024636163577 0.99999999589751
1200.0258361888132 0.9999999957004427
1200.0270362152494 0.9999999955033378
1200.0282362428854 0.9999999953061895
1200.0294362717216 0.99999999510898
1200.030636301758 0.999999994911653
1200.031836332994 0.9999999947140589
1200.0330363654305 0.999999994515967
1200.034236399067 0.9999999943174418
1200.0354364339032 0.9999999941193193
1200.0366364699396 0.99999999392252
1200.037836507176 0.9999999937267385
1200.0390365456126 0.9999999935309093
1200.040236585249 0.9999999933345419
1200.0414366260857 0.9999999931377745
1200.0426366681224 0.999999992940821
1200.043836711359 0.9999999927437817
1200.0450367557955 0.9999999925466887
1200.0462368014323 0.9999999923495468
1200.0474368482692 0.9999999921523389
1200.048636896306 0.9999999919554766
1200.049836945543 0.9999999917588097
1200.0510369959798 0.9999999915619142
1200.0522370476167 0.9999999913651031
1200.0534371004537 0.9999999911688404
1200.0546371544908 0.999999990973145
1200.055837209728 0.999999990777564
1200.0570372661653 0.9999999905817657
1200.0582373238024 0.9999999903857449
1200.0594373826398 0.9999999901896034
1200.060637442677 0.9999999899934058
1200.0618375039146 0.9999999897971779
1200.063037566352 0.9999999896009291
1200.0642376299897 0.9999999894046633
1200.0654376948273 0.9999999892083811
1200.066637760865 0.999999989012081
1200.0678378281027 0.9999999888157585
1200.0690378965403 0.9999999886194055
1200.0702379661784 0.9999999884230081
1200.0714380370162 0.9999999882265375
1200.0726381090542 0.9999999880299196
1200.0738381822923 0.9999999878329573
1200.0750382567305 0.999999987635299
1200.0762383323686 0.9999999874368583
1200.077438409207 0.9999999872386471
1200.0786384872454 0.9999999870422787
1200.0798385664839 0.9999999868478494
1200.0810386469223 0.9999999866537933
1200.082238728561 0.999999986458991
1200.0834388113997 0.9999999862634633
1200.0846388954385 0.9999999860675658
1200.0858389806772 0.9999999858715112
1200.0870390671162 0.9999999856753805
1200.0882391547552 0.9999999854792052
1200.0894392435946 0.9999999852830008
1200.0906393336338 0.9999999850867765
1200.0918394248731 0.9999999848905381
1200.0930395173125 0.9999999846942892
1200.0942396109522 0.9999999844980323
1200.0954397057917 0.9999999843017693
1200.0966398018313 0.9999999841055011
1200.097839899071 0.9999999839092287
1200.099039997511 0.9999999837129526
1200.100240097151 0.9999999835166733
1200.1014401979912 0.9999999833203906
1200.1026403000312 0.9999999831241051
1200.1038404032715 0.9999999829278161
1200.1050405077121 0.9999999827315238
1200.1062406133526 0.9999999825352274
1200.1074407201932 0.9999999823389261
1200.108640828234 0.9999999821426181
1200.1098409374747 0.9999999819463014
1200.1110410479157 0.9999999817499715
1200.1122411595568 0.9999999815536197
1200.113441272398 0.9999999813572252
1200.1146413864392 0.9999999811607359
1200.1158415016805 0.9999999809640622
1200.1170416181221 0.999999980767186
1200.1182417357636 0.9999999805703627
1200.1194418546054 0.9999999803740071
1200.1206419746472 0.9999999801781708
1200.1218420958892 0.9999999799824668
1200.1230422183314 0.9999999797865831
1200.1242423419737 0.9999999795905001
1200.125442466816 0.9999999793943067
1200.1266425928584 0.9999999791980635
1200.1278427201012 0.9999999790017954
1200.1290428485438 0.9999999788055122
1200.1302429781867 0.9999999786092186
1200.1314431090298 0.9999999784129171
1200.1326432410729 0.999999978216609
1200.133843374316 0.9999999780202949
1200.1350435087595 0.9999999778239747
1200.136243644403 0.9999999776276479
1200.1374437812467 0.9999999774313133
1200.1386439192906 0.9999999772349691
1200.1398440585344 0.9999999770386127
1200.1410441989785 0.9999999768422394
1200.1422443406227 0.9999999766458421
1200.1434444834672 0.9999999764494095
1200.1446446275115 0.9999999762529208
1200.1458447727564 0.9999999760563274
1200.147044919201 0.9999999758595017
1200.1482450668461 0.999999975662146
1200.149445215691 0.9999999754639506
1200.1506453657364 0.9999999752653568
1200.1518455169817 0.9999999750679386
1200.1530456694272 0.9999999748727209
1200.154245823073 0.9999999746786762
1200.1554459779188 0.9999999744842317
1200.1566461339648 0.9999999743005837
1200.157846291211 0.9999999741321698
1200.1590464496574 0.999999973963523
1200.1602466093038 0.9999999737947745
1200.1614467701506 0.9999999736259689
1200.1626469321973 0.9999999734571285
1200.1638470954442 0.9999999732882648
1200.1650472598915 0.9999999731193849
1200.1662474255388 0.9999999729504933
1200.1674475923862 0.9999999727815929
1200.1686477604337 0.9999999726126861
1200.1698479296817 0.9999999724437744
1200.1710481001296 0.9999999722748586
1200.1722482717778 0.9999999721059395
1200.173448444626 0.9999999719370176
1200.1746486186746 0.9999999717680933
1200.1758487939233 0.9999999715991669
1200.177048970372 0.9999999714302388
1200.178249148021 0.999999971261309
1200.17944932687 0.9999999710923776
1200.1806495069195 0.999999970923445
1200.181849688169 0.9999999707545111
1200.1830498706188 0.999999970585576
1200.184250054269 0.9999999704166397
1200.1854502391188 0.9999999702477023
1200.186650425169 0.9999999700787638
1200.1878506124197 0.9999999699098244
1200.1890508008703 0.999999969740884
1200.1902509905212 0.9999999695719424
1200.1914511813723 0.9999999694029998
1200.1926513734234 0.9999999692340563
1200.1938515666748 0.9999999690651117
1200.1950517611263 0.9999999688961662
1200.1962519567783 0.9999999687272194
1200.1974521536301 0.9999999685582718
1200.1986523516825 0.9999999683893229
1200.1998525509348 0.9999999682203727
1200.2010527513876 0.9999999680514214
1200.2022529530402 0.9999999678824687
1200.2034531558932 0.9999999677135147
1200.2046533599464 0.9999999675445591
1200.2058535651997 0.9999999673756018
1200.2070537716534 0.9999999672066429
1200.2082539793073 0.9999999670376816
1200.2094541881613 0.9999999668687181
1200.2106543982154 0.999999966699752
1200.2118546094698 0.9999999665307827
1200.2130548219245 0.9999999663618097
1200.2142550355793 0.9999999661928319
1200.2154552504344 0.9999999660238487
1200.2166554664896 0.9999999658548582
1200.2178556837453 0.9999999656858587
1200.219055902201 0.9999999655168469
1200.220256121857 0.9999999653478185
1200.221456342713 0.9999999651787673
1200.2226565647693 0.9999999650096827
1200.223856788026 0.9999999648405478
1200.225057012483 0.999999964671328
1200.22625723814 0.9999999645019376
1200.2274574649973 0.9999999643321703
1200.2286576930549 0.9999999641617214
1200.2298579223127 0.999999963990563
1200.2310581527706 0.9999999638193026
1200.2322583844289 0.9999999636486827
1200.2334586172874 0.9999999634792346
1200.234658851346 0.9999999633115025
1200.235859086605 0.9999999631451367
1200.2370593230642 0.9999999629787205
1200.2382595607235 0.9999999628113752
1200.239459799583 0.9999999626432443
1200.240660039643 0.9999999624747188
1200.2418602809032 0.9999999623060194
1200.2430605233635 0.9999999621372315
1200.2442607670241 0.9999999619683902
1200.245461011885 0.9999999617995133
1200.2466612579462 0.9999999616306117
1200.2478615052075 0.9999999614616925
1200.249061753669 0.9999999612927601
1200.2502620033308 0.999999961123818
1200.251462254193 0.9999999609548679
1200.252662506255 0.9999999607859117
1200.253862759518 0.9999999606169503
1200.2550630139808 0.9999999604479844
1200.2562632696438 0.9999999602790149
1200.257463526507 0.9999999601100421
1200.2586637845707 0.9999999599410662
1200.2598640438346 0.9999999597720873
1200.2610643042988 0.9999999596031058
1200.262264565963 0.9999999594341217
1200.2634648288276 0.9999999592651351
1200.2646650928928 0.9999999590961457
1200.265865358158 0.9999999589271535
1200.2670656246232 0.9999999587581587
1200.268265892289 0.9999999585891611
1200.269466161155 0.9999999584201603
1200.2706664312213 0.9999999582511562
1200.2718667024878 0.9999999580821481
1200.2730669749546 0.9999999579131362
1200.2742672486218 0.9999999577441195
1200.275467523489 0.9999999575750977
1200.2766677995567 0.9999999574060698
1200.2778680768245 0.999999957237035
1200.2790683552926 0.9999999570679922
1200.280268634961 0.9999999568989397
1200.2814689158297 0.9999999567298755
1200.2826691978987 0.9999999565607974
1200.283869481168 0.9999999563917021
1200.2850697656377 0.9999999562225854
1200.2862700513074 0.9999999560534417
1200.2874703381776 0.9999999558842632
1200.288670626248 0.9999999557150394
1200.2898709155188 0.9999999555457552
1200.2910712059897 0.9999999553763891
1200.2922714976612 0.9999999552069097
1200.2934717905325 0.9999999550372691
1200.2946720846046 0.9999999548673931
1200.2958723798768 0.9999999546971514
1200.2970726763492 0.9999999545262483
1200.298272974022 0.9999999543538256
1200.299473272895 0.9999999541776565
1200.3006735729684 0.9999999539946948
1200.3018738742421 0.9999999538068944
1200.303074176716 0.9999999536266034
1200.3042744803904 0.9999999534645373
1200.305474785265 0.9999999533138613
1200.3066750913397 0.9999999531606721
1200.307875398615 0.9999999530003528
1200.3090757070904 0.9999999528354426
1200.3102760167665 0.9999999526685883
1200.3114763276424 0.9999999525009227
1200.3126766397188 0.9999999523328281
1200.3138769529955 0.9999999521644569
1200.3150772674728 0.9999999519958873
1200.3162775831502 0.9999999518271617
1200.3174779000278 0.9999999516582965
1200.3186782181058 0.9999999514892732
1200.3198785373843 0.999999951319994
1200.3210788578629 0.9999999511501955
1200.3222791795417 0.9999999509795527
1200.323479502421 0.9999999508083788
1200.3246798265006 0.9999999506381582
1200.3258801517807 0.9999999504700907
1200.327080478261 0.9999999503033603
1200.3282808059414 0.9999999501363513
1200.3294811348223 0.9999999499684958
1200.3306814649036 0.9999999498000688
1200.3318817961851 0.9999999496313838
1200.3330821286672 0.9999999494625843
1200.3342824623494 0.9999999492937229
1200.335482797232 0.9999999491248222
1200.336683133315 0.9999999489551529
1200.3378834705984 0.9999999487846946
1200.3390838090818 0.999999948614222
1200.3402841487657 0.999999948443739
1200.34148448965 0.9999999482732476
1200.3426848317345 0.9999999481027495
1200.3438851750195 0.999999947932246
1200.3450855195047 0.9999999477617381
1200.3462858651903 0.9999999475912263
1200.3474862120763 0.9999999474207114
1200.3486865601626 0.9999999472501935
1200.3498869094492 0.9999999470796732
1200.3510872599363 0.9999999469091506
1200.3522876116235 0.9999999467386259
1200.3534879645113 0.9999999465680994
1200.3546883185993 0.9999999463975712
1200.3558886738876 0.9999999462270415
1200.3570890303765 0.9999999460565103
1200.3582893880655 0.9999999458859776
1200.3594897469552 0.9999999457154437
1200.3606901070452 0.9999999455449085
1200.3618904683356 0.9999999453743721
1200.363090830826 0.9999999452038346
1200.3642911945171 0.9999999450332959
1200.3654915594084 0.9999999448627562
1200.3666919255 0.9999999446922155
1200.367892292792 0.9999999445216738
1200.3690926612844 0.999999944351131
1200.3702930309773 0.9999999441805872
1200.3714934018706 0.9999999440100426
1200.372693773964 0.9999999438394971
1200.373894147258 0.9999999436689503
1200.3750945217523 0.9999999434984028
1200.376294897447 0.9999999433278544
1200.377495274342 0.9999999431573051
1200.3786956524375 0.9999999429867549
1200.379896031733 0.9999999428162036
1200.3810964122295 0.9999999426456515
1200.382296793926 0.9999999424750985
1200.3834971768229 0.9999999423045445
1200.3846975609201 0.9999999421339896
1200.385897946218 0.9999999419634336
1200.387098332716 0.9999999417928765
1200.3882987204145 0.9999999416223184
1200.3894991093134 0.9999999414517592
1200.3906994994124 0.999999941281199
1200.3918998907125 0.9999999411106374
1200.3931002832123 0.9999999409400746
1200.3943006769127 0.9999999407695104
1200.3955010718137 0.9999999405989446
1200.396701467915 0.999999940428377
1200.3979018652165 0.9999999402578078
1200.3991022637185 0.9999999400872365
1200.400302663421 0.9999999399166629
1200.4015030643238 0.9999999397460865
1200.402703466427 0.9999999395755069
1200.4039038697306 0.9999999394049237
1200.4051042742346 0.9999999392343357
1200.406304679939 0.9999999390637423
1200.407505086844 0.9999999388931415
1200.4087054949491 0.9999999387225315
1200.4099059042549 0.9999999385519093
1200.411106314761 0.9999999383812703
1200.4123067264675 0.9999999382106084
1200.4135071393741 0.9999999380399132
1200.4147075534815 0.9999999378691683
1200.4159079687893 0.9999999376983435
1200.4171083852973 0.9999999375273687
1200.4183088030059 0.9999999373560603
1200.419509221915 0.9999999371840426
1200.4207096420243 0.9999999370109686
1200.421910063334 0.9999999368372819
1200.4231104858443 0.9999999366646017
1200.4243109095548 0.999999936494479
1200.4255113344661 0.9999999363266106
1200.4267117605775 0.999999936159129
1200.4279121878894 0.9999999359906773
1200.4291126164019 0.9999999358212205
1200.4303130461146 0.9999999356512157
1200.431513477028 0.999999935480971
1200.4327139091415 0.999999935310612
1200.4339143424556 0.9999999351401875
1200.43511477697 0.9999999349697201
1200.436315212685 0.9999999347992236
1200.4375156496003 0.9999999346287066
1200.4387160877163 0.9999999344581746
1200.4399165270324 0.9999999342876317
1200.4411169675493 0.9999999341170803
1200.4423174092665 0.9999999339465223
1200.4435178521837 0.9999999337759591
1200.444718296302 0.9999999336053915
1200.4459187416205 0.9999999334348205
1200.4471191881394 0.9999999332642465
1200.4483196358588 0.9999999330936701
1200.4495200847784 0.9999999329230913
1200.450720534899 0.9999999327525106
1200.4519209862194 0.9999999325819283
1200.4531214387407 0.9999999324113442
1200.4543218924623 0.9999999322407589
1200.4555223473844 0.9999999320701721
1200.4567228035069 0.9999999318995844
1200.4579232608298 0.9999999317289938
1200.4591237193533 0.9999999315584038
1200.4603241790771 0.9999999313878126
1200.4615246400015 0.9999999312172205
1200.4627251021263 0.999999931046629
1200.4639255654517 0.9999999308760351
1200.4651260299775 0.9999999307054405
1200.4663264957037 0.9999999305348447
1200.4675269626302 0.9999999303642482
1200.4687274307573 0.999999930193651
1200.469927900085 0.9999999300230529
1200.471128370613 0.9999999298524539
1200.4723288423418 0.9999999296818541
1200.4735293152708 0.9999999295112537
1200.4747297894003 0.9999999293406524
1200.4759302647303 0.9999999291700504
1200.477130741261 0.9999999289994476
1200.4783312189918 0.9999999288288439
1200.4795316979232 0.9999999286582397
1200.480732178055 0.9999999284876346
1200.4819326593872 0.9999999283170288
1200.48313314192 0.9999999281464221
1200.4843336256533 0.9999999279758149
1200.4855341105872 0.9999999278052067
1200.4867345967214 0.9999999276345979
1200.487935084056 0.9999999274639881
1200.4891355725915 0.9999999272933776
1200.4903360623273 0.9999999271227662
1200.4915365532636 0.9999999269521542
1200.4927370454004 0.9999999267815413
1200.4939375387376 0.9999999266109276
1200.4951380332755 0.999999926440313
1200.4963385290137 0.9999999262696976
1200.4975390259524 0.9999999260990813
1200.4987395240917 0.999999925928464
1200.4999400234312 0.9999999257578458
1200.5011405239716 0.9999999255872265
1200.5023410257122 0.9999999254166062
1200.5035415286536 0.9999999252459848
1200.5047420327953 0.9999999250753621
1200.5059425381376 0.999999924904738
1200.5071430446803 0.9999999247341126
1200.5083435524236 0.9999999245634856
1200.5095440613673 0.9999999243928568
1200.5107445715116 0.9999999242222258
1200.5119450828565 0.9999999240515927
1200.5131455954017 0.9999999238809566
1200.5143461091475 0.9999999237103172
1200.5155466240938 0.9999999235396736
1200.5167471402408 0.999999923369025
1200.5179476575881 0.9999999231983695
1200.5191481761358 0.9999999230277052
1200.5203486958844 0.9999999228570289
1200.5215492168331 0.9999999226863358
1200.5227497389826 0.9999999225156186
1200.5239502623326 0.9999999223448655
1200.5251507868832 0.9999999221740535
1200.526351312634 0.9999999220031279
1200.5275518395856 0.9999999218319369
1200.5287523677375 0.9999999216601659
1200.5299528970902 0.9999999214876014
1200.5311534276432 0.9999999213149267
1200.532353959397 0.9999999211437117
1200.5335544923512 0.9999999209745121
1200.534755026506 0.9999999208060361
1200.535955561861 0.9999999206369786
1200.537156098417 0.999999920467169
1200.5383566361734 0.9999999202969412
1200.53955717513 0.9999999201265355
1200.5407577152876 0.9999999199560481
1200.5419582566456 0.9999999197855145
1200.5431587992039 0.999999919614951
1200.544359342963 0.9999999194443672
1200.5455598879225 0.9999999192737687
1200.5467604340827 0.9999999191031601
1200.5479609814433 0.9999999189325433
1200.5491615300048 0.9999999187619205
1200.5503620797663 0.999999918591293
1200.5515626307288 0.9999999184206616
1200.5527631828916 0.9999999182500268
1200.553963736255 0.9999999180793893
1200.5551642908188 0.9999999179087493
1200.5563648465834 0.9999999177381073
1200.5575654035486 0.9999999175674632
1200.5587659617142 0.9999999173968174
1200.5599665210802 0.9999999172261699
1200.561167081647 0.9999999170555207
1200.5623676434145 0.9999999168848701
1200.5635682063823 0.999999916714218
1200.5647687705507 0.9999999165435643
1200.5659693359198 0.9999999163729092
1200.5671699024892 0.9999999162022526
1200.5683704702594 0.9999999160315945
1200.5695710392304 0.999999915860935
1200.5707716094014 0.9999999156902737
1200.5719721807734 0.9999999155196108
1200.5731727533457 0.9999999153489461
1200.5743733271188 0.9999999151782796
1200.5755739020922 0.9999999150076112
1200.5767744782663 0.9999999148369407
1200.577975055641 0.999999914666268
1200.5791756342164 0.9999999144955928
1200.5803762139922 0.999999914324915
1200.5815767949687 0.9999999141542344
1200.5827773771457 0.9999999139835507
1200.5839779605233 0.9999999138128632
1200.5851785451016 0.9999999136421718
1200.5863791308805 0.9999999134714757
1200.5875797178599 0.9999999133007743
1200.5887803060398 0.9999999131300671
1200.5899808954202 0.9999999129593526
1200.5911814860015 0.9999999127886302
1200.5923820777832 0.9999999126178978
1200.5935826707655 0.9999999124471539
1200.5947832649483 0.9999999122763957
1200.595983860332 0.9999999121056202
1200.597184456916 0.9999999119348233
1200.5983850547007 0.9999999117639992
1200.599585653686 0.9999999115931403
1200.600786253872 0.9999999116346612
1200.6019868552585 0.999999911663119
1200.6031874578455 0.9999999116761549
1200.6043880616332 0.9999999116855415
1200.6055886666215 0.9999999117004448
1200.6067892728104 0.9999999117208362
1200.6079898802 0.9999999117438748
1200.60919048879 0.9999999117679261
1200.6103910985807 0.9999999117920526
1200.6115917095722 0.9999999118138622
1200.6127923217643 0.9999999118284109
1200.6139929351568 0.9999999118338391
1200.61519354975 0.9999999118409989
1200.6163941655439 0.9999999118662133
1200.6175947825384 0.9999999119089825
1200.6187954007335 0.9999999119537584
1200.6199960201293 0.9999999119912023
1200.6211966407254 0.9999999120222312
1200.6223972625226 0.9999999120499676
1200.62359788552 0.9999999120766224
1200.6247985097182 0.9999999121053892
1200.625999135117 0.9999999121375469
1200.6271997617164 0.9999999121698936
1200.6284003895164 0.9999999122016778
1200.6296010185172 0.9999999122329213
1200.6308016487183 0.9999999122639462
1200.6320022801203 0.9999999122950717
1200.6332029127227 0.9999999123265982
