Atmospheric Species: CO
Metallicity: 10
C/O_Ratio: 1.5
Wavelength[nm] Flux_variation
2399.998438414741 0.9999999786328325
2400.0008384143794 0.9999999787250813
2400.0032384164174 0.9999999788171218
2400.005638420856 0.9999999789089493
2400.008038427694 0.9999999790005595
2400.0104384369324 0.9999999790919462
2400.0128384485706 0.9999999791831055
2400.015238462609 0.9999999792740313
2400.0176384790475 0.999999979364719
2400.0200384978857 0.999999979455162
2400.022438519124 0.9999999795453548
2400.0248385427626 0.999999979635292
2400.0272385688013 0.9999999796857848
2400.0296385972397 0.9999999787714436
2400.032038628078 0.9999999778911061
2400.0344386613165 0.9999999770430575
2400.0368386969553 0.9999999762256748
2400.039238734994 0.9999999754374437
2400.041638775433 0.9999999746769231
2400.044038818271 0.9999999739427797
2400.04643886351 0.9999999732337471
2400.048838911149 0.9999999725486226
2400.0512389611877 0.999999971886282
2400.0536390136267 0.999999971245659
2400.0560390684655 0.9999999706257601
2400.0584391257044 0.9999999700256219
2400.060839185344 0.9999999694443471
2400.0632392473826 0.9999999688810961
2400.065639311822 0.9999999683350403
2400.068039378661 0.9999999678054416
2400.0704394479008 0.9999999672915494
2400.0728395195397 0.9999999667926905
2400.075239593579 0.999999966308203
2400.077639670019 0.9999999658374686
2400.080039748859 0.999999965379887
2400.0824398300983 0.9999999649348943
2400.084839913738 0.9999999645019618
2400.087239999778 0.9999999640805649
2400.089640088218 0.9999999636702159
2400.0920401790577 0.9999999632704454
2400.094440272298 0.9999999628808028
2400.0968403679385 0.9999999625008642
2400.0992404659787 0.9999999621302041
2400.101640566419 0.9999999617684325
2400.1040406692596 0.9999999614151746
2400.1064407745002 0.9999999610700574
2400.108840882141 0.9999999607327202
2400.1112409921816 0.9999999604028348
2400.1136411046227 0.9999999600800575
2400.1160412194636 0.9999999597640781
2400.118441336705 0.9999999594545741
2400.120841456346 0.999999959151243
2400.123241578388 0.9999999588537926
2400.1256417028294 0.999999958561925
2400.128041829671 0.99999995827535
2400.130441958913 0.9999999579937846
2400.1328420905547 0.9999999577169426
2400.135242224597 0.9999999574445413
2400.1376423610386 0.9999999571762974
2400.140042499881 0.9999999569119077
2400.1424426411236 0.9999999566510847
2400.1448427847663 0.9999999563935056
2400.1472429308087 0.9999999561388585
2400.1496430792517 0.9999999558868008
2400.152043230095 0.9999999556369567
2400.154443383338 0.9999999553889364
2400.1568435389813 0.9999999551422936
2400.159243697025 0.9999999548965323
2400.1616438574683 0.999999954651092
2400.1640440203123 0.9999999544053163
2400.1664441855564 0.9999999541584289
2400.1688443532003 0.9999999539094939
2400.1712445232447 0.9999999536573693
2400.173644695689 0.9999999534006058
2400.1760448705336 0.999999953137371
2400.1784450477785 0.9999999528652387
2400.1808452274236 0.9999999525809642
2400.1832454094692 0.9999999522800654
2400.1856455939146 0.9999999519561743
2400.18804578076 0.9999999515998604
2400.190445970006 0.9999999511966973
2400.1928461616517 0.9999999507230717
2400.1952463556977 0.9999999501377075
2400.1976465521443 0.9999999493589722
2400.200046750991 0.9999999481953356
2400.202446952238 0.9999999461077622
2400.204847155885 0.9999999414669039
2400.2072473619323 0.9999999297742155
2400.2096475703793 0.9999999017069084
2400.212047781227 0.9999998496658595
2400.2144479944745 0.9999997938616761
2400.2168482101224 0.9999997841690801
2400.219248428171 0.9999998310946088
2400.221648648619 0.9999998878898861
2400.224048871468 0.99999992237991
2400.226449096717 0.9999999372687766
2400.228849324366 0.999999942881842
2400.2312495544156 0.9999999450299291
2400.233649786865 0.9999999459413345
2400.2360500217146 0.9999999463597861
2400.238450258965 0.9999999465391191
2400.240850498615 0.9999999465806715
2400.2432507406656 0.9999999465327045
2400.2456509851163 0.9999999464210307
2400.2480512319676 0.9999999462602627
2400.2504514812185 0.9999999460586078
2400.2528517328706 0.9999999458202438
2400.2552519869223 0.9999999455464049
2400.257652243374 0.9999999452358637
2400.2600525022262 0.9999999448849245
2400.262452763479 0.9999999444869926
2400.2648530271317 0.9999999440316019
2400.2672532931847 0.9999999435025374
2400.2696535616383 0.9999999428745366
2400.272053832492 0.9999999421065202
2400.2744541057455 0.9999999411281102
2400.2768543813995 0.9999999398069438
2400.279254659454 0.9999999378597212
2400.281654939909 0.9999999345792676
2400.284055222764 0.9999999280107182
2400.2864555080196 0.9999999127785636
2400.288855795675 0.9999998760483096
2400.2912560857308 0.9999998004093125
2400.293656378187 0.9999997024686894
2400.2960566730435 0.9999996649293067
2400.2984569703003 0.9999997307199553
2400.3008572699573 0.9999998271347822
2400.3032575720144 0.999999888431978
2400.3056578764727 0.9999999153732433
2400.30805818333 0.9999999258403307
2400.3104584925886 0.9999999298428024
2400.3128588042473 0.999999931198056
2400.315259118306 0.9999999309974569
2400.317659434765 0.9999999288769381
2400.3200597536247 0.999999923182846
2400.3224600748845 0.9999999118877059
2400.324860398545 0.9999998958451283
2400.3272607246054 0.9999998816224138
2400.329661053066 0.9999998777880564
2400.332061383927 0.9999998865869011
2400.3344617171883 0.9999999015031454
2400.3368620528504 0.9999999140887724
2400.3392623909126 0.9999999209116407
2400.341662731375 0.9999999232501323
2400.344063074238 0.9999999233271197
2400.346463419501 0.9999999224471704
2400.3488637671644 0.9999999211123516
2400.3512641172283 0.9999999194784539
2400.3536644696924 0.999999917589154
2400.356064824557 0.9999999154529946
2400.358465181822 0.9999999130194542
2400.3608655414873 0.99999991024373
2400.363265903553 0.9999999070772831
2400.365666268019 0.9999999034576124
2400.3680666348855 0.999999899305781
2400.370467004152 0.9999998945222509
2400.372867375819 0.9999998889808863
2400.375267749887 0.9999998825204645
2400.377668126355 0.9999998749326703
2400.380068505223 0.9999998659441801
2400.3824688864916 0.999999855190353
2400.3848692701604 0.9999998421743355
2400.38726965623 0.9999998262001975
2400.3896700446994 0.9999998062722484
2400.3920704355696 0.9999997808962351
2400.394470828841 0.9999997470799477
2400.3968712245114 0.9999997011801363
2400.3992716225825 0.9999996363087583
2400.4016720230543 0.9999995352124177
2400.404072425926 0.99999935566453
2400.4064728311987 0.9999990047834493
2400.408873238872 0.9999983434677538
2400.411273648945 0.9999972564854165
2400.4136740614185 0.999995812630862
2400.416074476293 0.999994557934532
2400.4184748935677 0.9999943463736618
2400.4208753132425 0.9999953551822375
2400.423275735318 0.9999968249902821
2400.425676159794 0.9999980500096184
2400.42807658667 0.9999988369932459
2400.430477015947 0.9999992700341289
2400.432877447624 0.9999994899748756
2400.435277881702 0.999999608616181
2400.43767831818 0.999999681589866
2400.440078757058 0.9999997314661261
2400.442479198337 0.9999997677965976
2400.444879642016 0.9999997953444394
2400.447280088096 0.9999998168346083
2400.449680536576 0.9999998339738558
2400.4520809874566 0.9999998478841999
2400.4544814407377 0.9999998593432016
2400.4568818964194 0.9999998689008549
2400.4592823545017 0.9999998769581696
2400.461682814984 0.999999883814277
2400.4640832778673 0.9999998896963442
2400.4664837431505 0.9999998947796417
2400.4688842108344 0.9999998992013768
2400.471284680919 0.9999999030701875
2400.4736851534035 0.9999999064730053
2400.476085628289 0.9999999094798755
2400.4784861055746 0.9999999121471516
2400.480886585261 0.9999999145191956
2400.4832870673476 0.9999999166258381
2400.485687551835 0.9999999184710198
2400.4880880387227 0.999999920010107
2400.490488528011 0.9999999211557503
2400.4928890196993 0.999999921951822
2400.495289513789 0.9999999228208615
2400.4976900102783 0.9999999242022498
2400.5000905091683 0.9999999258720259
2400.5024910104594 0.9999999273383909
2400.5048915141506 0.9999999284748641
2400.5072920202424 0.9999999293855956
2400.5096925287344 0.9999999301678913
2400.512093039627 0.9999999308683631
2400.5144935529206 0.9999999315066049
2400.516894068614 0.9999999320921013
2400.519294586708 0.9999999326308999
2400.521695107203 0.9999999331276236
2400.524095630098 0.999999933586125
2400.526496155394 0.9999999340097246
2400.5288966830904 0.9999999344013271
2400.531297213187 0.9999999347635041
2400.5336977456845 0.9999999350985457
2400.5360982805823 0.9999999354084941
2400.5384988178807 0.9999999356951732
2400.5408993575797 0.9999999359602326
2400.54329989968 0.9999999362051476
2400.5457004441796 0.9999999364312394
2400.54810099108 0.9999999366397055
2400.5505015403814 0.9999999368316119
2400.552902092083 0.9999999370079178
2400.5553026461853 0.9999999371694758
2400.557703202688 0.9999999373170365
2400.560103761591 0.9999999374512832
2400.5625043228956 0.9999999375727884
2400.5649048866 0.9999999376820481
2400.5673054527047 0.9999999377794722
2400.56970602121 0.9999999378653813
2400.5721065921166 0.999999937940026
2400.5745071654233 0.999999938003543
2400.576907741131 0.9999999380559756
2400.579308319239 0.9999999380972497
2400.5817088997474 0.9999999381271596
2400.5841094826565 0.9999999381453439
2400.586510067966 0.9999999381512588
2400.5889106556765 0.9999999381441148
2400.5913112457874 0.99999993812285
2400.5937118382985 0.9999999380860134
2400.5961124332107 0.9999999380316671
2400.5985130305235 0.9999999379572118
2400.6009136302364 0.99999993785915
2400.6033142323504 0.9999999377327252
2400.605714836865 0.9999999375713753
2400.6081154437798 0.9999999373658879
2400.6105160530956 0.9999999371030073
2400.6129166648116 0.9999999367630116
2400.6153172789286 0.999999936315725
2400.617717895446 0.9999999357120636
2400.620118514364 0.9999999348666049
2400.622519135683 0.9999999336121876
2400.6249197594025 0.9999999315598544
2400.627320385522 0.9999999276240413
2400.629721014043 0.9999999186686724
2400.632121644964 0.9999998972504794
2400.634522278286 0.9999998524647584
2400.6369229140087 0.9999997820382402
2400.6393235521314 0.9999997108297016
2400.641724192655 0.9999996844427795
2400.6441248355795 0.9999997235763216
2400.646525480905 0.9999997981333436
2400.6489261286306 0.999999864012279
2400.651326778757 0.9999999029879387
2400.6537274312836 0.9999999208008395
2400.6561280862115 0.9999999281599288
2400.6585287435396 0.9999999314447356
2400.6609294032687 0.9999999331827923
2400.6633300653984 0.9999999342391825
2400.665730729929 0.9999999349339365
2400.6681313968597 0.9999999354104515
2400.6705320661913 0.9999999357442613
2400.6729327379235 0.9999999359797228
2400.6753334120563 0.9999999361446932
2400.67773408859 0.9999999362579609
2400.680134767524 0.9999999363331921
2400.682535448859 0.9999999363825416
2400.684936132595 0.9999999364228197
2400.6873368187316 0.9999999364903844
2400.6897375072685 0.9999999365805948
2400.6921381982065 0.9999999366542884
2400.694538891545 0.9999999367132829
2400.6969395872843 0.9999999367588766
2400.699340285424 0.9999999367920681
2400.7017409859645 0.9999999368134821
2400.704141688906 0.9999999363099391
2400.706542394248 0.9999999359086535
2400.708943101991 0.9999999356654234
2400.711343812134 0.9999999354808663
2400.713744524678 0.9999999353098138
2400.716145239623 0.9999999351360593
2400.7185459569682 0.9999999349536951
2400.7209466767144 0.9999999347597966
2400.7233473988613 0.9999999345521543
2400.7257481234087 0.9999999343285761
2400.7281488503572 0.999999934086579
2400.7305495797063 0.9999999338231432
2400.7329503114565 0.9999999335345303
2400.735351045607 0.99999993321598
2400.7377517821583 0.9999999328613488
2400.7401525211103 0.9999999324625566
2400.742553262463 0.9999999320088173
2400.7449540062166 0.9999999314854441
2400.747354752371 0.9999999308719667
2400.749755500926 0.9999999301391326
2400.752156251882 0.9999999292434005
2400.754557005238 0.9999999281184577
2400.7569577609956 0.9999999266560118
2400.7593585191535 0.9999999246667601
2400.7617592797124 0.999999921779741
2400.764160042672 0.9999999171501254
2400.7665608080324 0.999999908584766
2400.7689615757936 0.9999998905461586
2400.7713623459554 0.9999998521942592
2400.7737631185178 0.9999997821530292
2400.776163893481 0.9999996852269648
2400.7785646708453 0.9999995961358228
2400.7809654506104 0.9999995633735016
2400.783366232776 0.9999996076262374
2400.7857670173426 0.9999997011648256
2400.78816780431 0.9999997950989512
2400.790568593678 0.9999998594136165
2400.792969385447 0.9999998932763173
2400.795370179617 0.999999908865632
2400.797770976187 0.9999999162027788
2400.8001717751586 0.9999999201133395
2400.8025725765306 0.9999999224681625
2400.8049733803036 0.9999999239982019
2400.8073741864773 0.999999925032746
2400.8097749950516 0.9999999257433265
2400.8121758060265 0.9999999262294268
2400.8145766194034 0.9999999265524802
2400.81697743518 0.9999999267529748
2400.819378253358 0.9999999268581827
2400.821779073937 0.999999926887136
2400.8241798969157 0.9999999268534296
2400.826580722296 0.9999999267669347
2400.828981550077 0.9999999266349249
2400.831382380259 0.9999999264627859
2400.8337832128414 0.9999999262545505
2400.8361840478256 0.9999999260132073
2400.8385848852095 0.9999999257409599
2400.8409857249944 0.9999999254393982
2400.843386567181 0.9999999251096325
2400.8457874117676 0.9999999247523523
2400.8481882587557 0.999999924367936
2400.850589108144 0.9999999239564704
2400.8529899599334 0.9999999235177983
2400.855390814124 0.9999999230514952
2400.857791670715 0.999999922556945
2400.860192529707 0.9999999220333007
2400.8625933911 0.9999999210382996
2400.8649942548936 0.9999999196435992
2400.867395121088 0.9999999184199854
2400.8697959896836 0.9999999173313332
2400.87219686068 0.999999916299855
2400.8745977340773 0.9999999152132119
2400.876998609875 0.9999999140113358
2400.8793994880743 0.9999999127357644
2400.8818003686742 0.9999999114580196
2400.8842012516748 0.9999999101950285
2400.8866021370764 0.999999908903027
2400.889003024879 0.9999999074906962
2400.8914039150823 0.9999999057490495
2400.8938048076866 0.9999999030948987
2400.8962057026915 0.9999998981336767
2400.8986066000975 0.999999888782355
2400.9010074999046 0.9999998748060923
2400.9034084021123 0.99999986166952
2400.9058093067215 0.999999858147835
2400.908210213731 0.9999998661773132
2400.9106111231413 0.9999998781925448
2400.9130120349528 0.9999998867049116
2400.9154129491653 0.99999989025674
2400.917813865779 0.9999998907074384
2400.9202147847927 0.9999998897849123
2400.9226157062076 0.9999998882989449
2400.925016630024 0.9999998865297469
2400.927417556241 0.9999998845652862
2400.929818484859 0.9999998824341226
2400.932219415878 0.9999998801445594
2400.934620349298 0.9999998776961961
2400.9370212851186 0.9999998750839078
2400.93942222334 0.9999998722994405
2400.9418231639625 0.9999998693321968
2400.944224106986 0.9999998661695045
2400.9466250524106 0.9999998627967852
2400.949026000236 0.9999998591974432
2400.9514269504625 0.9999998549345408
2400.95382790309 0.9999998496576309
2400.956228858118 0.9999998444020034
2400.9586298155473 0.999999839023787
2400.9610307753774 0.999999833429201
2400.963431737609 0.9999998275469489
2400.9658327022407 0.9999998213104777
2400.968233669274 0.999999814666136
2400.9706346387084 0.9999998075522368
2400.9730356105433 0.9999997999063327
2400.975436584779 0.9999997916605384
2400.9778375614164 0.9999997827396607
2400.980238540454 0.9999997730546797
2400.9826395218934 0.9999997625179249
2400.985040505733 0.9999997510151049
2400.987441491974 0.9999997384189906
2400.989842480616 0.9999997245812624
2400.9922434716586 0.9999997093286369
2400.9946444651027 0.9999996924561929
2400.9970454609474 0.9999996737224102
2400.999446459193 0.9999996528375447
2401.00184745984 0.9999996294538513
2401.004248462888 0.9999996031486671
2401.006649468337 0.9999995734043704
2401.009050476187 0.999999539579737
2401.0114514864376 0.9999995008695198
2401.0138524990894 0.9999994562474682
2401.0162535141426 0.9999994043823531
2401.0186545315964 0.9999993435157126
2401.0210555514514 0.9999992712723096
2401.0234565737073 0.9999991843598186
2401.025857598364 0.9999990781533492
2401.028258625422 0.9999989458345082
2401.030659654881 0.9999987770100599
2401.0330606867415 0.999998554017483
2401.0354617210023 0.9999982410139574
2401.0378627576647 0.9999977477141886
2401.0402637967277 0.9999968268730834
2401.042664838192 0.9999948118827344
2401.0450658820573 0.9999896206825228
2401.0474669283235 0.9999770295100191
2401.0498679769908 0.9999578375553162
2401.052269028059 0.999948125277442
2401.054670081529 0.9999595078148505
2401.0570711373994 0.9999785570432211
2401.059472195671 0.9999903269966817
2401.0618732563435 0.999995076905502
2401.064274319417 0.9999969408248357
2401.0666753848914 0.9999978052533455
2401.0690764527676 0.999998275662668
2401.0714775230445 0.9999985781834497
2401.0738785957224 0.9999987953171982
2401.076279670802 0.9999989603645759
2401.0786807482814 0.999999090064966
2401.081081828163 0.999999194385115
2401.083482910445 0.9999992799017114
2401.0858839951284 0.9999993510922999
2401.088285082213 0.9999994106589155
2401.0906861716985 0.9999994612057393
2401.0930872635854 0.9999995049366515
2401.095488357873 0.9999995429916663
2401.097889454562 0.9999995763179004
2401.100290553651 0.9999996056820147
2401.1026916551423 0.9999996317044331
2401.1050927590345 0.9999996548941448
2401.107493865328 0.999999675643278
2401.1098949740217 0.9999996942658156
2401.112296085117 0.999999711046263
2401.114697198614 0.9999997262217956
2401.1170983145116 0.9999997399933209
2401.1194994328107 0.9999997525306394
2401.12190055351 0.9999997639787378
2401.1243016766116 0.9999997744616476
2401.1267028021134 0.9999997840901029
2401.1291039300168 0.9999997929482283
2401.131505060321 0.9999998011206471
2401.1339061930266 0.9999998086773507
2401.1363073281336 0.9999998156794327
2401.138708465641 0.9999998221834079
2401.14110960555 0.9999998282307506
2401.14351074786 0.9999998338664121
2401.1459118925713 0.999999839127561
2401.1483130396837 0.9999998440471958
2401.150714189197 0.9999998480670808
2401.153115341112 0.9999998514858013
2401.1555164954275 0.999999854920023
2401.1579176521445 0.9999998582683823
2401.160318811263 0.9999998614902441
2401.1627199727823 0.9999998645700773
2401.1651211367025 0.9999998675040316
2401.1675223030243 0.9999998702939241
2401.169923471747 0.9999998729444869
2401.172324642871 0.9999998754618876
2401.174725816396 0.9999998778528276
2401.1771269923224 0.9999998801242134
2401.17952817065 0.9999998822828693
2401.1819293513786 0.999999884335356
2401.1843305345087 0.9999998862879713
2401.1867317200395 0.999999888146673
2401.1891329079717 0.9999998899170648
2401.1915340983055 0.9999998916043972
2401.19393529104 0.9999998932136328
2401.196336486176 0.9999998947493899
2401.198737683713 0.9999998962160209
2401.201138883651 0.9999998976176228
2401.2035400859904 0.9999998989580822
2401.205941290731 0.9999999002410835
2401.2083424978728 0.9999999014702061
2401.210743707416 0.9999999026490384
2401.21314491936 0.999999903781377
2401.215546133705 0.9999999048717609
2401.217947350452 0.9999999059268646
2401.2203485695995 0.9999999069599735
2401.2227497911485 0.999999908002368
2401.225151015099 0.9999999090422386
2401.2275522414507 0.9999999100459847
2401.2299534702033 0.999999911015452
2401.2323547013575 0.9999999119523473
2401.2347559349128 0.9999999128582868
2401.237157170869 0.9999999137347771
2401.239558409227 0.9999999145832519
2401.241959649986 0.9999999148691778
2401.244360893146 0.9999999152009804
2401.2467621387077 0.9999999156918744
2401.2491633866703 0.9999999162482931
2401.251564637034 0.9999999168190636
2401.253965889799 0.999999917383859
2401.2563671449657 0.9999999179357103
2401.2587684025334 0.9999999184723144
2401.261169662502 0.9999999189929998
2401.263570924872 0.9999999194977777
2401.2659721896434 0.999999919986898
2401.2683734568163 0.9999999204607971
2401.2707747263903 0.9999999209199354
2401.273175998366 0.9999999213648225
2401.2755772727423 0.9999999217959641
