Atmospheric Species: CO
Metallicity: 10
C/O_Ratio: 0.5
Wavelength[nm] Flux_variation
2299.999916647247 0.9999999374100171
2300.0022166483136 0.9999999402085787
2300.00451665168 0.9999999428996833
2300.006816657347 0.9999999454878146
2300.0091166653133 0.9999999479771678
2300.0114166755798 0.9999999503718374
2300.0137166881464 0.9999999526755001
2300.016016703013 0.9999999548918276
2300.0183167201794 0.9999999570242061
2300.0206167396464 0.9999999590758445
2300.022916761413 0.9999999610498738
2300.0252167854796 0.999999962949169
2300.0275168118465 0.9999999647765007
2300.0298168405134 0.9999999665345412
2300.03211687148 0.9999999682257644
2300.0344169047466 0.9999999698525788
2300.0367169403135 0.9999999714172457
2300.0390169781804 0.9999999729219108
2300.0413170183474 0.9999999743686685
2300.043617060814 0.9999999757594464
2300.0459171055813 0.9999999770961681
2300.0482171526482 0.9999999783805292
2300.0505172020153 0.9999999796142818
2300.0528172536824 0.9999999807990634
2300.0551173076497 0.9999999819363654
2300.057417363917 0.9999999830276991
2300.059717422484 0.9999999840744636
2300.0620174833516 0.9999999850780121
2300.0643175465193 0.9999999860396015
2300.0666176119867 0.9999999869604459
2300.068917679754 0.9999999878417798
2300.0712177498217 0.9999999886846318
2300.0735178221894 0.9999999894901426
2300.075817896857 0.9999999902592684
2300.078117973825 0.9999999909930196
2300.080418053093 0.9999999916923036
2300.0827181346613 0.9999999923580403
2300.0850182185295 0.999999992991019
2300.0873183046974 0.9999999935920714
2300.0896183931654 0.9999999941620057
2300.091918483934 0.9999999947015109
2300.0942185770023 0.9999999952113026
2300.096518672371 0.9999999956920638
2300.09881877004 0.9999999961444219
2300.1011188700086 0.9999999965689724
2300.1034189722773 0.9999999969663035
2300.105719076846 0.9999999973369872
2300.108019183715 0.9999999976815331
2300.110319292884 0.9999999980004468
2300.1126194043536 0.9999999982942154
2300.114919518123 0.9999999985632598
2300.1172196341927 0.9999999988080346
2300.119519752562 0.9999999990289251
2300.121819873232 0.9999999992263555
2300.124119996202 0.9999999994006425
2300.126420121472 0.9999999995521693
2300.128720249042 0.9999999996812419
2300.131020378912 0.9999999997881557
2300.1333205110823 0.9999999998732356
2300.135620645553 0.9999999999366933
2300.1379207823234 0.9999999999788348
2300.140220921394 0.9999999999998741
2300.142521062765 1.0
2300.144821206436 0.9999999999794505
2300.1471213524073 0.999999999938388
2300.1494215006787 0.9999999998769973
2300.15172165125 0.9999999997954214
2300.154021804122 0.9999999996938049
2300.1563219592936 0.9999999995722718
2300.158622116766 0.9999999994309009
2300.160922276538 0.9999999992698227
2300.1632224386103 0.9999999990891119
2300.1655226029825 0.9999999988887895
2300.1678227696552 0.9999999986689644
2300.1701229386276 0.9999999984296376
2300.1724231099006 0.9999999981708344
2300.174723283474 0.9999999978925737
2300.1770234593473 0.9999999975948405
2300.1793236375206 0.9999999972776111
2300.1816238179945 0.9999999969408611
2300.183924000768 0.999999996584556
2300.186224185842 0.9999999962085945
2300.1885243732163 0.9999999958129343
2300.1908245628906 0.9999999953974739
2300.1931247548655 0.9999999949620981
2300.19542494914 0.9999999945066959
2300.197725145715 0.999999994031131
2300.2000253445904 0.999999993535266
2300.2023255457657 0.9999999930189203
2300.204625749241 0.9999999924819278
2300.2069259550167 0.9999999919240719
2300.209226163093 0.9999999913451711
2300.211526373469 0.9999999907449809
2300.2138265861454 0.9999999901232713
2300.216126801122 0.999999989479763
2300.218427018399 0.9999999888141926
2300.220727237976 0.9999999881262818
2300.2230274598533 0.9999999874156748
2300.2253276840306 0.999999986682076
2300.2276279105085 0.9999999859251234
2300.2299281392866 0.9999999851444558
2300.2322283703647 0.9999999843396713
2300.234528603743 0.9999999835103656
2300.236828839422 0.999999982656109
2300.239129077401 0.9999999817764287
2300.24142931768 0.9999999808709047
2300.243729560259 0.9999999799389719
2300.2460298051387 0.9999999789801358
2300.2483300523186 0.9999999779938553
2300.2506303017985 0.9999999769795377
2300.252930553579 0.9999999759365927
2300.2552308076597 0.999999974864388
2300.2575310640404 0.9999999737622476
2300.2598313227218 0.9999999726295157
2300.2621315837027 0.999999971465439
2300.2644318469847 0.9999999702692762
2300.2667321125664 0.9999999690402304
2300.2690323804486 0.9999999677774998
2300.271332650631 0.9999999664802035
2300.273632923114 0.9999999651474436
2300.275933197897 0.9999999637782969
2300.27823347498 0.9999999623717593
2300.2805337543637 0.9999999609268305
2300.2828340360475 0.9999999594423911
2300.2851343200314 0.9999999579173874
2300.287434606316 0.9999999563505951
2300.2897348949004 0.9999999547408106
2300.2920351857856 0.999999953086766
2300.294335478971 0.9999999513870949
2300.2966357744563 0.9999999496404178
2300.298936072242 0.9999999478452345
2300.3012363723283 0.999999946000115
2300.303536674715 0.999999944103349
2300.3058369794016 0.9999999421533268
2300.3081372863885 0.9999999401482751
2300.310437595676 0.9999999380863698
2300.3127379072635 0.9999999359656782
2300.3150382211516 0.9999999337842025
2300.3173385373398 0.9999999315398456
2300.319638855828 0.9999999292303446
2300.321939176617 0.9999999268534518
2300.3242394997064 0.9999999244067085
2300.326539825096 0.999999921887569
2300.328840152786 0.9999999192933504
2300.3311404827764 0.9999999166212499
2300.3334408150668 0.999999913868353
2300.3357411496577 0.9999999110315446
2300.3380414865487 0.9999999081075789
2300.3403418257403 0.999999905093034
2300.3426421672325 0.9999999019842868
2300.344942511025 0.9999998987776205
2300.347242857117 0.9999998954689266
2300.34954320551 0.9999998920541358
2300.351843556203 0.999999888528807
2300.3541439091973 0.9999998848881871
2300.356444264491 0.9999998811274668
2300.3587446220854 0.9999998772414269
2300.36104498198 0.999999873224484
2300.3633453441753 0.9999998690710348
2300.365645708671 0.9999998647748338
2300.3679460754665 0.9999998603294472
2300.370246444563 0.9999998557279773
2300.372546815959 0.9999998509632524
2300.374847189656 0.9999998460275493
2300.377147565653 0.9999998409127383
2300.379447943951 0.9999998356101137
2300.381748324549 0.999999830110576
2300.3840487074476 0.9999998244043634
2300.3863490926465 0.9999998184810679
2300.388649480146 0.9999998123296658
2300.3909498699454 0.9999998059384732
2300.393250262045 0.9999997992949219
2300.3955506564457 0.9999997923857121
2300.397851053146 0.9999997851966006
2300.4001514521474 0.9999997777123023
2300.402451853449 0.9999997699167249
2300.4047522570504 0.9999997617923243
2300.407052662953 0.9999997533205475
2300.4093530711557 0.9999997444813326
2300.4116534816585 0.9999997352532665
2300.4139538944623 0.9999997256134293
2300.416254309566 0.9999997155369902
2300.4185547269703 0.9999997049972061
2300.420855146675 0.9999996939655408
2300.4231555686806 0.9999996824108911
2300.4254559929864 0.9999996702998313
2300.4277564195922 0.9999996575960535
2300.430056848499 0.9999996442604907
2300.432357279706 0.99999963025048
2300.4346577132137 0.9999996155200679
2300.4369581490214 0.999999600019038
2300.4392585871296 0.9999995836928057
2300.441559027538 0.9999995664816406
2300.4438594702474 0.9999995483206313
2300.446159915257 0.9999995291383744
2300.448460362567 0.9999995088570447
2300.4507608121776 0.9999994873908263
2300.453061264089 0.9999994646456934
2300.4553617183 0.999999440517718
2300.4576621748115 0.9999994148920852
2300.459962633624 0.9999993876419372
2300.462263094737 0.9999993586098789
2300.46456355815 0.9999993276692821
2300.4668640238638 0.999999294631148
2300.469164491878 0.9999992592993098
2300.4714649621924 0.999999221452134
2300.473765434808 0.9999991808424269
2300.4760659097233 0.9999991371722011
2300.4783663869393 0.9999990901444521
2300.480666866456 0.9999990393606635
2300.4829673482727 0.9999989843299336
2300.4852678323905 0.9999989243427105
2300.4875683188084 0.999998858342957
2300.489868807527 0.9999987851422587
2300.492169298546 0.9999987043190932
2300.4944697918654 0.9999986169332875
2300.496770287485 0.9999985241809976
2300.499070785406 0.9999984248825639
2300.5013712856266 0.9999983153620946
2300.503671788148 0.9999981918679922
2300.50597229297 0.9999980519285219
2300.5082728000925 0.9999978935130661
2300.5105733095156 0.9999977138875282
2300.512873821239 0.9999975090965653
2300.515174335263 0.9999972736389797
2300.5174748515874 0.9999970000043611
2300.5197753702128 0.999996677606681
2300.5220758911382 0.9999962914113478
2300.5243764143643 0.9999958190926972
2300.526676939891 0.9999952236609785
2300.5289774677176 0.9999944256215566
2300.5312779978453 0.9999932052321332
2300.5335785302736 0.999991016969906
2300.5358790650025 0.9999869093155895
2300.5381796020315 0.9999789183578734
2300.5404801413615 0.999963625188509
2300.5427806829916 0.9999430155760907
2300.545081226923 0.9999333250075804
2300.547381773154 0.9999453892557119
2300.5496823216863 0.9999659745915632
2300.5519828725187 0.9999802227191632
2300.5542834256516 0.9999875720134264
2300.556583981085 0.9999913650487606
2300.5588845388197 0.9999933915213649
2300.5611850988544 0.9999945380176383
2300.5634856611896 0.9999953031945131
2300.5657862258254 0.9999958800797867
2300.5680867927617 0.9999963397700512
2300.570387361999 0.9999967166760384
2300.5726879335366 0.9999970319055356
2300.5749885073747 0.9999972999292409
2300.5772890835133 0.9999975308133638
2300.5795896619525 0.9999977318655049
2300.5818902426927 0.999997908442771
2300.584190825733 0.9999980646102549
2300.586491411074 0.9999982035411114
2300.5887919987154 0.9999983277744462
2300.5910925886574 0.9999984393775557
2300.5933931809004 0.9999985400570512
2300.5956937754436 0.9999986312360571
2300.5979943722878 0.9999987141102205
2300.6002949714325 0.999998789687852
2300.6025955728774 0.9999988588265212
2300.6048961766232 0.9999989222576402
2300.6071967826697 0.9999989806066913
2300.6094973910167 0.9999990344144885
2300.6117980016643 0.9999990841478388
2300.6140986146124 0.999999130213532
2300.616399229861 0.9999991729783477
2300.618699847411 0.9999992127303086
2300.6210004672607 0.9999992497542878
2300.6233010894116 0.9999992842962815
2300.625601713863 0.9999993165717802
2300.6279023406146 0.9999993467736745
2300.630202969667 0.9999993750882972
2300.6325036010203 0.9999994016401733
2300.6348042346744 0.9999994265841198
2300.6371048706287 0.9999994500457877
2300.639405508884 0.9999994721380848
2300.6417061494394 0.9999994929637168
2300.644006792296 0.9999995126156394
2300.646307437453 0.9999995311785298
2300.6486080849104 0.9999995487293127
2300.650908734669 0.9999995653386021
2300.6532093867277 0.9999995810706341
2300.6555100410874 0.9999995959843757
2300.6578106977477 0.9999996101338233
2300.660111356709 0.999999623568703
2300.6624120179704 0.9999996363346503
2300.664712681533 0.9999996484737317
2300.667013347396 0.9999996600247575
2300.6693140155594 0.9999996710236884
2300.6716146860235 0.9999996815035012
2300.6739153587887 0.999999691495026
2300.676216033854 0.9999997010265875
2300.6785167112203 0.9999997101247018
2300.680817390887 0.9999997188138892
2300.6831180728545 0.9999997271169911
2300.6854187571225 0.9999997350552937
2300.6877194436915 0.9999997426484243
2300.6900201325616 0.9999997499150285
2300.6923208237317 0.999999756872325
2300.6946215172034 0.9999997635363935
2300.696922212975 0.9999997699223552
2300.6992229110474 0.9999997760443693
2300.7015236114207 0.9999997819155275
2300.7038243140946 0.9999997875484167
2300.706125019069 0.9999997929545918
2300.7084257263446 0.9999997981450297
2300.7107264359206 0.9999998031299708
2300.713027147797 0.999999807919084
2300.7153278619744 0.9999998125215791
2300.7176285784526 0.9999998169459309
2300.719929297232 0.9999998212002692
2300.722230018311 0.9999998252921574
2300.7245307416915 0.9999998292289197
2300.7268314673724 0.9999998330173083
2300.729132195354 0.999999836663684
2300.7314329256365 0.9999998401741353
2300.73373365822 0.9999998435545395
2300.7360343931036 0.9999998468101893
2300.7383351302883 0.9999998499462722
2300.740635869774 0.9999998529676963
2300.7429366115603 0.9999998558790854
2300.745237355647 0.9999998586848364
2300.7475381020345 0.9999998613891083
2300.749838850723 0.9999998639958746
2300.7521396017123 0.9999998665088486
2300.7544403550023 0.9999998689316552
2300.756741110593 0.9999998712676892
2300.759041868484 0.9999998735201451
2300.761342628676 0.9999998756921337
2300.7636433911694 0.999999877786537
2300.765944155963 0.9999998798062038
2300.7682449230574 0.9999998817537256
2300.7705456924527 0.9999998836316708
2300.7728464641486 0.9999998854424647
2300.7751472381456 0.999999887188353
2300.777448014443 0.9999998888715799
2300.7797487930416 0.9999998904942424
2300.7820495739406 0.9999998920583205
2300.7843503571403 0.999999893565689
2300.786651142641 0.9999998950182247
2300.788951930442 0.999999896417677
2300.7912527205444 0.9999998977656438
2300.7935535129477 0.9999998990637647
2300.7958543076516 0.9999999003135841
2300.7981551046564 0.9999999015164929
2300.8004559039614 0.9999999026739209
2300.802756705568 0.9999999037872014
2300.805057509475 0.9999999048576064
2300.8073583156824 0.9999999058863314
2300.809659124191 0.9999999068745475
2300.8119599350007 0.9999999078234151
2300.814260748111 0.9999999087339453
2300.816561563522 0.9999999096071849
2300.818862381234 0.9999999104441202
2300.8211632012467 0.9999999112456572
2300.82346402356 0.9999999120127411
2300.8257648481745 0.9999999127461915
2300.8280656750894 0.9999999134468569
2300.8303665043054 0.9999999141155089
2300.8326673358224 0.9999999147529176
2300.83496816964 0.9999999153597833
2300.8372690057586 0.9999999159367906
2300.8395698441777 0.9999999164846158
2300.841870684898 0.9999999170039178
2300.844171527919 0.9999999174952584
2300.846472373241 0.9999999179592151
2300.8487732208637 0.9999999183963661
2300.8510740707875 0.9999999188072355
2300.853374923012 0.9999999191923095
2300.855675777537 0.9999999195520857
2300.8579766343632 0.9999999198870246
2300.8602774934902 0.9999999201975478
2300.862578354918 0.999999920484084
2300.8648792186464 0.9999999207470313
2300.867180084676 0.9999999209867589
2300.8694809530066 0.9999999212036164
2300.871781823638 0.9999999213979729
2300.87408269657 0.9999999215701195
2300.8763835718028 0.9999999217203859
2300.878684449337 0.9999999218490448
2300.880985329172 0.9999999219563674
2300.883286211307 0.999999922042629
2300.885587095744 0.9999999221080603
2300.887887982482 0.999999922152874
2300.8901888715195 0.9999999221773029
2300.892489762859 0.9999999221815217
2300.8947906564986 0.9999999221657095
2300.89709155244 0.9999999221300617
2300.899392450682 0.9999999220747177
2300.901693351225 0.9999999219998108
2300.9039942540685 0.9999999219054795
2300.9062951592127 0.9999999217918281
2300.9085960666584 0.999999921658982
2300.910896976405 0.9999999215070037
2300.9131978884525 0.9999999213359597
2300.915498802801 0.999999921145948
2300.9177997194497 0.9999999209370084
2300.9201006383996 0.9999999207091871
2300.9224015596506 0.9999999204624638
2300.9247024832025 0.9999999201969091
2300.9270034090555 0.9999999199124966
2300.9293043372095 0.9999999196092355
2300.931605267664 0.9999999192870631
2300.9339062004196 0.9999999189460106
2300.9362071354763 0.99999991858599
2300.938508072834 0.9999999182069323
2300.9408090124925 0.9999999178088015
2300.9431099544518 0.9999999173914917
2300.9454108987125 0.999999916954907
2300.9477118452737 0.9999999164989479
2300.950012794136 0.9999999160235035
2300.9523137452993 0.9999999155284347
2300.9546146987636 0.9999999150135799
2300.9569156545285 0.9999999144787888
2300.959216612595 0.999999913923879
2300.961517572962 0.9999999133486753
2300.96381853563 0.9999999127529869
2300.966119500599 0.9999999121365782
2300.968420467869 0.9999999114992355
2300.97072143744 0.999999910840715
2300.9730224093114 0.9999999101607314
2300.975323383484 0.999999909459047
2300.977624359958 0.9999999087353604
2300.9799253387328 0.9999999079893707
2300.9822263198084 0.9999999072207453
2300.984527303185 0.9999999064291302
2300.986828288863 0.9999999056142064
2300.9891292768416 0.9999999047755843
2300.991430267122 0.9999999039128681
2300.993731259702 0.9999999030256347
2300.9960322545835 0.9999999021134532
2300.9983332517663 0.9999999011759007
2301.00063425125 0.9999999002124939
2301.0029352530346 0.9999998992227118
2301.0052362571205 0.9999998982060784
2301.007537263507 0.999999897162027
2301.009838272195 0.9999998960899986
2301.0121392831834 0.9999998949894068
2301.0144402964734 0.99999989385965
2301.016741312064 0.9999998927000741
2301.0190423299555 0.999999891510012
2301.0213433501485 0.999999890288769
2301.023644372642 0.9999998890356248
2301.0259453974368 0.9999998877497904
2301.028246424533 0.9999998864305468
2301.0305474539296 0.9999998850770243
2301.0328484856273 0.9999998836883317
2301.0351495196264 0.9999998822636622
2301.0374505559266 0.9999998808019955
2301.0397515945274 0.9999998793024198
2301.0420526354296 0.9999998777638718
2301.0443536786324 0.9999998761853329
2301.0466547241367 0.9999998745657273
2301.048955771942 0.9999998729038203
2301.0512568220483 0.9999998711984756
2301.0535578744552 0.9999998694484701
2301.0558589291636 0.999999867652453
2301.058159986173 0.9999998658090359
2301.0604610454834 0.9999998639169166
2301.062762107095 0.9999998619745009
2301.0650631710073 0.9999998599802719
2301.067364237221 0.9999998579326392
2301.0696653057357 0.9999998558299306
2301.0719663765517 0.9999998536703021
2301.0742674496682 0.9999998514520283
2301.0765685250863 0.9999998491731003
2301.0788696028053 0.9999998468315585
2301.0811706828254 0.999999844425283
2301.0834717651464 0.9999998419521247
2301.085772849769 0.9999998394097158
2301.088073936692 0.9999998367956544
2301.0903750259167 0.9999998341075051
2301.092676117442 0.9999998313425116
2301.0949772112685 0.9999998284980017
2301.097278307396 0.9999998255710908
2301.0995794058254 0.9999998225586657
2301.101880506555 0.9999998194576
2301.104181609586 0.9999998162645521
2301.106482714918 0.9999998129759801
2301.1087838225512 0.9999998095882869
2301.1110849324855 0.9999998060975521
2301.1133860447208 0.9999998024996802
2301.1156871592575 0.9999997987904706
2301.117988276095 0.9999997949654162
2301.1202893952336 0.999999791019761
2301.1225905166734 0.9999997869485656
2301.1248916404143 0.9999997827465927
2301.1271927664566 0.9999997784082869
2301.1294938948 0.9999997739278619
2301.131795025444 0.9999997692991377
2301.1340961583896 0.9999997645157422
2301.136397293636 0.9999997595707335
2301.138698431184 0.9999997544568958
2301.140999571033 0.9999997491665904
2301.1433007131827 0.9999997436917265
2301.145601857634 0.9999997380238469
2301.1479030043865 0.9999997321536523
2301.15020415344 0.9999997260718325
2301.1525053047944 0.9999997197677536
2301.1548064584504 0.999999713231284
2301.1571076144073 0.9999997064504724
2301.1594087726653 0.999999699413245
2301.1617099332248 0.9999996921065302
2301.1640110960852 0.9999996845166188
2301.1663122612467 0.9999996766287469
2301.1686134287093 0.9999996684272059
2301.1709145984732 0.9999996598952392
2301.1732157705383 0.9999996510151347
2301.1755169449048 0.999999641767571
2301.1778181215723 0.9999996321323318
2301.180119300541 0.9999996220874325
2301.182420481811 0.9999996116093984
2301.1847216653814 0.9999996006732258
2301.187022851254 0.9999995892517812
2301.189324039427 0.9999995773161094
2301.1916252299015 0.9999995648350102
2301.1939264226776 0.99999955177479
2301.1962276177546 0.9999995380991629
2301.1985288151327 0.9999995237689449
2301.200830014812 0.9999995087418154
2301.2031312167924 0.9999994929720192
2301.205432421074 0.9999994764097183
2301.207733627657 0.9999994590010861
2301.210034836541 0.9999994406874577
2301.2123360477262 0.9999994214051152
2301.214637261213 0.9999994010845841
2301.2169384770004 0.9999993796497971
2301.2192396950895 0.9999993570177665
2301.2215409154796 0.9999993330974627
