Atmospheric Species: CH4
Metallicity: 100
C/O_Ratio: 1.5
Wavelength[nm] Flux_variation
2199.999397930935 0.9998495128425181
2200.001597931433 0.999861843503811
2200.003797934131 0.999873197684769
2200.0059979390285 0.9998858507377814
2200.0081979461265 0.9999030940961395
2200.010397955424 0.9999260748170841
2200.0125979669224 0.9999516976342083
2200.01479798062 0.9999685412865416
2200.016997996518 0.9999658868521216
2200.019198014616 0.9999523803811533
2200.021398034914 0.9999359135547456
2200.023598057412 0.9999171829992145
2200.0257980821098 0.9998984616368726
2200.027998109008 0.9998841450655749
2200.030198138106 0.999877014896181
2200.032398169404 0.9998780212625944
2200.034598202902 0.9998871334742778
2200.0367982386 0.9999033754385501
2200.0389982764987 0.9999235217886329
2200.041198316597 0.9999401586361913
2200.043398358895 0.9999481863595596
2200.0455984033933 0.9999530291010388
2200.0477984500917 0.9999597795040324
2200.04999849899 0.9999682328222702
2200.052198550088 0.999973478124261
2200.0543986033867 0.9999692546903513
2200.0565986588854 0.9999580158130937
2200.058798716584 0.9999463080162734
2200.0609987764824 0.9999373154779859
2200.0631988385812 0.9999323855588669
2200.06539890288 0.9999321808287934
2200.0675989693787 0.9999364895334154
2200.0697990380777 0.9999435444543416
2200.071999108977 0.9999473621764442
2200.074199182076 0.9999326800498193
2200.076399257375 0.9998997208330981
2200.078599334874 0.9998671052065725
2200.0807994145734 0.9998420269433117
2200.082999496473 0.9998258218579141
2200.0851995805724 0.9998183593818274
2200.087399666872 0.9998193916944723
2200.0895997553716 0.999828912232991
2200.0917998460714 0.9998470591847277
2200.093999938971 0.9998734393317819
2200.096200034071 0.9999057616414936
2200.098400131371 0.9999384209057613
2200.100600230871 0.999962528827096
2200.1028003325714 0.9999720256246428
2200.1050004364715 0.9999702630824981
2200.107200542572 0.999964066634458
2200.1094006508724 0.999958062464789
2200.111600761373 0.9999546875743686
2200.113800874074 0.9999542516606645
2200.116000988975 0.9999543612704977
2200.118201106076 0.9999511571629476
2200.120401225377 0.9999448424392076
2200.1226013468786 0.9999399026821651
2200.1248014705798 0.9999396361872492
2200.1270015964815 0.9999444921822076
2200.129201724583 0.9999518623630359
2200.1314018548846 0.9999570226582584
2200.1336019873866 0.9999575926214967
2200.1358021220885 0.9999536093711153
2200.1380022589906 0.9999456572997519
2200.1402023980927 0.9999374359551413
2200.1424025393953 0.9999330972923974
2200.1446026828976 0.9999337167007759
2200.1468028286004 0.9999329159172446
2200.149002976503 0.9999161622956771
2200.151203126606 0.9998904066303996
2200.1534032789095 0.9998690043526952
2200.1556034334126 0.9998555186430885
2200.157803590116 0.9998505133156516
2200.16000374902 0.9998540476589843
2200.162203910123 0.9998661065671344
2200.1644040734272 0.9998862357952294
2200.1666042389315 0.9999119707879843
2200.168804406636 0.9999348573771425
2200.17100457654 0.9999442163354599
2200.173204748645 0.9999451395855139
2200.1754049229494 0.9999444910396382
2200.1776050994545 0.9999373150062164
2200.179805278159 0.9999181993930858
2200.182005459065 0.9998969248375504
2200.18420564217 0.9998802366072879
2200.186405827476 0.9998660711840403
2200.188606014982 0.9998481448246674
2200.1908062046878 0.9998274694883567
2200.193006396594 0.9998109628150491
2200.1952065907003 0.9998018382859363
2200.197406787007 0.9998007785685131
2200.1996069855136 0.9998079715536381
2200.201807186221 0.9998236921970836
2200.204007389128 0.9998484054007992
2200.2062075942354 0.9998814144118342
2200.208407801543 0.9999151023612183
2200.2106080110507 0.9999290191880319
2200.2128082227587 0.9999273624968615
2200.215008436667 0.9999215071773174
2200.2172086527758 0.9999106692676841
2200.2194088710844 0.9998997438840024
2200.221609091593 0.999894571693468
2200.2238093143023 0.999897336651054
2200.2260095392116 0.9999080069206877
2200.228209766321 0.9999237650284069
2200.230409995631 0.999935445780046
2200.232610227141 0.9999364995502986
2200.2348104608513 0.9999356321167134
2200.237010696762 0.999939610054361
2200.2392109348725 0.9999493517964535
2200.2414111751837 0.9999626550335883
2200.243611417695 0.9999747126834548
2200.245811662406 0.9999807228038134
2200.248011909318 0.9999784612357172
2200.25021215843 0.9999671569281584
2200.2524124097417 0.9999502807423951
2200.254612663254 0.9999344739989638
2200.256812918967 0.9999240678033046
2200.2590131768798 0.9999206592619372
2200.2612134369933 0.9999243864055984
2200.2634136993065 0.9999343988089792
2200.26561396382 0.9999485546421814
2200.2678142305344 0.9999627339327419
2200.2700144994487 0.9999698896654946
2200.272214770563 0.9999546831744721
2200.274415043878 0.9999179528273755
2200.2766153193934 0.9998814049489558
2200.2788155971084 0.9998524438933923
2200.281015877024 0.9998324734745515
2200.28321615914 0.9998214523232379
2200.2854164434566 0.9998190119433158
2200.287616729973 0.9998249225516953
2200.2898170186895 0.9998387637366329
2200.2920173096068 0.9998581059481001
2200.294217602724 0.9998755743790662
2200.296417898042 0.9998865643525561
2200.29861819556 0.9998976448945976
2200.3008184952782 0.9999121367849044
2200.3030187971967 0.9999150956750625
2200.3052191013153 0.9998935381961918
2200.307419407635 0.9998704929162749
2200.309619716154 0.9998552045334216
2200.3118200268736 0.9998485491528128
2200.314020339794 0.9998497838594335
2200.3162206549146 0.9998557151874031
2200.3184209722353 0.99985862787447
2200.320621291756 0.9998556166100756
2200.3228216134776 0.9998542362844696
2200.3250219373995 0.9998597568406362
2200.3272222635214 0.9998736147184537
2200.3294225918435 0.999895687666716
2200.3316229223665 0.999923793094172
2200.3338232550896 0.9999470935665091
2200.3360235900127 0.9999479320945274
2200.3382239271364 0.9999393101490469
2200.34042426646 0.9999345647105172
2200.342624607985 0.9999358379584127
2200.3448249517096 0.999942506056388
2200.3470252976344 0.9999528336598094
2200.34922564576 0.999963076297148
2200.3514259960857 0.9999667625690373
2200.3536263486117 0.9999618706558832
2200.355826703338 0.9999537412031545
2200.3580270602647 0.9999442002171239
2200.3602274193922 0.9999265996511177
2200.36242778072 0.9998977229405164
2200.3646281442475 0.9998678219071379
2200.3668285099757 0.999844315490211
2200.3690288779044 0.9998293043897075
2200.371229248033 0.9998229592435164
2200.3734296203625 0.9998251250617466
2200.3756299948923 0.9998356486228497
2200.377830371622 0.9998534872834596
2200.3800307505526 0.9998734542102048
2200.3822311316835 0.999886735823473
2200.3844315150145 0.9998952768094698
2200.386631900546 0.9999058390793714
2200.388832288278 0.9999172617513681
2200.3910326782106 0.9999251243583467
2200.3932330703433 0.999931317760073
2200.3954334646764 0.9999391551118815
2200.39763386121 0.9999423982193572
2200.399834259944 0.9999305695981621
2200.402034660878 0.9999134008046567
2200.404235064013 0.9999013954211423
2200.4064354693483 0.9998970542319253
2200.4086358768836 0.9999000752405318
2200.4108362866195 0.9999083961072317
2200.413036698556 0.9999184364069736
2200.415237112693 0.9999280988896371
2200.4174375290304 0.9999373457298875
2200.419637947568 0.9999359968566638
2200.421838368306 0.9999102372103562
2200.4240387912446 0.9998783596061885
2200.4262392163832 0.9998524519493739
2200.428439643723 0.9998349970524049
2200.430640073262 0.9998262585937744
2200.432840505003 0.9998260402611304
2200.435040938943 0.9998341638760037
2200.4372413750843 0.99984970708102
2200.4394418134257 0.9998648218920532
2200.4416422539675 0.9998591868333747
2200.4438426967104 0.9998420876306751
2200.4460431416533 0.9998301639989817
2200.4482435887962 0.9998264811999552
2200.45044403814 0.9998313192610061
2200.452644489684 0.999844830576524
2200.4548449434287 0.9998670316556482
2200.457045399374 0.9998969702346768
2200.4592458575194 0.9999315108907277
2200.4614463178655 0.9999640009038334
2200.463646780412 0.9999863682016112
2200.465847245159 0.9999967250379062
2200.468047712106 1.0
2200.470248181254 0.9999983641961795
2200.4724486526025 0.9999865150470092
2200.4746491261512 0.9999632080325458
2200.4768496019005 0.9999365198824387
2200.4790500798504 0.9999123722331472
2200.4812505600003 0.9998932023295238
2200.483451042351 0.999879793367047
2200.4856515269025 0.9998722559456273
2200.487852013654 0.9998707312921714
2200.4900525026064 0.9998756657589349
2200.492252993759 0.9998875386019804
2200.494453487112 0.9999060561181501
2200.4966539826655 0.9999284843141296
2200.49885448042 0.9999486009347193
2200.5010549803746 0.9999631573181014
2200.5032554825298 0.9999744137156151
2200.5054559868854 0.9999789463813591
2200.5076564934416 0.9999721131523898
2200.5098570021983 0.999959926631666
2200.5120575131555 0.9999470172748323
2200.514258026313 0.999931103394122
2200.5164585416715 0.9999113936333063
2200.5186590592302 0.9998928469383223
2200.5208595789895 0.9998798173761759
2200.5230601009494 0.9998739125505494
2200.5252606251097 0.9998743586451142
2200.5274611514706 0.9998750028023804
2200.529661680032 0.9998650496048612
2200.531862210794 0.9998492666482216
2200.5340627437563 0.9998379430789658
2200.5362632789193 0.9998332999994148
2200.5384638162827 0.9998323019473859
2200.5406643558467 0.9998282219375337
2200.5428648976113 0.9998197180742594
2200.5450654415763 0.9998127151327761
2200.547265987742 0.9998107376531356
2200.549466536108 0.9998146377165442
2200.5516670866746 0.9998246123956361
2200.553867639442 0.9998399345123943
2200.55606819441 0.9998540408998698
2200.5582687515785 0.9998526304576644
2200.560469310947 0.9998419473179566
2200.562669872517 0.9998353771640052
2200.564870436287 0.9998366068548598
2200.5670710022578 0.9998463825482493
2200.5692715704286 0.9998648924867508
2200.571472140801 0.9998903353121037
2200.573672713373 0.9999083902192248
2200.575873288146 0.9999009652749775
2200.578073865119 0.9998893936147899
2200.5802744442935 0.9998850641519491
2200.5824750256684 0.9998892515206049
2200.5846756092433 0.999901572560924
2200.586876195019 0.9999201421264896
2200.5890767829956 0.999940033298995
2200.5912773731725 0.9999554644234591
2200.59347796555 0.9999660733403328
2200.5956785601284 0.9999716563106775
2200.597879156907 0.9999702857322497
2200.6000797558863 0.9999646088264664
2200.6022803570663 0.9999576476435389
2200.604480960447 0.9999483548137879
2200.6066815660283 0.9999335271337235
2200.60888217381 0.9999152631781443
2200.611082783792 0.9998998358090612
2200.613283395975 0.9998911098646364
2200.6154840103586 0.9998904400849586
2200.617684626943 0.999898101284738
2200.619885245728 0.9999137496644791
2200.6220858667134 0.9999359720367801
2200.6242864898995 0.9999601493283622
2200.626487115286 0.9999748966146205
2200.6286877428734 0.9999730215974092
2200.6308883726615 0.999963337126058
2200.63308900465 0.9999537810914332
2200.6352896388394 0.9999473549355244
2200.637490275229 0.999945011623316
2200.63969091382 0.9999469413495085
2200.641891554611 0.9999525238809871
2200.6440921976027 0.9999593789654203
2200.646292842795 0.9999635562624426
2200.6484934901882 0.9999625321638724
2200.650694139782 0.9999559870455069
2200.6528947915763 0.9999461392350495
2200.655095445571 0.9999374748990733
2200.657296101767 0.9999326542156376
2200.659496760163 0.9999316114534651
2200.66169742076 0.999933407179204
2200.663898083558 0.999937944916922
2200.6660987485557 0.9999455311202181
2200.668299415755 0.9999550291528834
2200.6705000851543 0.9999616306164554
2200.6727007567547 0.9999543449420245
2200.6749014305556 0.999932913479312
2200.677102106557 0.9999115658476464
2200.67930278476 0.999897038081187
2200.6815034651627 0.9998908973781604
2200.6837041477665 0.9998934173682247
2200.685904832571 0.9999044253810914
2200.6881055195763 0.9999231859367699
2200.6903062087817 0.9999474744264765
2200.6925069001886 0.9999710475026771
2200.6947075937956 0.9999828929553664
2200.6969082896035 0.9999797739188168
2200.699108987612 0.9999689802691822
2200.701309687821 0.9999574192195906
2200.7035103902313 0.9999489896803082
2200.7057110948417 0.9999443607640217
2200.707911801653 0.9999399964832635
2200.710112510665 0.9999265732069752
2200.7123132218776 0.999898521528581
2200.7145139352915 0.999866063600817
2200.7167146509055 0.9998388212553152
2200.7189153687204 0.999819956856428
2200.721116088736 0.9998097512281502
2200.7233168109524 0.9998079693450009
2200.72551753537 0.9998145737790376
2200.7277182619873 0.9998297879729269
2200.729918990806 0.9998539212149119
2200.7321197218253 0.9998861238076346
2200.7343204550452 0.9999211610346412
2200.736521190466 0.9999445901775954
2200.7387219280877 0.9999505734206139
2200.7409226679097 0.9999515729726446
2200.7431234099327 0.9999533150643075
2200.7453241541566 0.9999546493978914
2200.747524900581 0.9999532612640741
2200.749725649206 0.9999498294200341
2200.751926400032 0.9999462889312019
2200.754127153059 0.9999425256147095
2200.7563279082865 0.9999368772952759
2200.7585286657145 0.9999290556492374
2200.7607294253435 0.9999206267665702
2200.7629301871734 0.999913879298652
2200.765130951204 0.9999110744765596
2200.767331717435 0.999912919646916
2200.769532485867 0.9999167205219268
2200.7717332565 0.9999169263569698
2200.7739340293333 0.9999124888871191
2200.7761348043678 0.99990730298791
2200.7783355816027 0.9999031993097367
2200.7805363610387 0.99990050489576
2200.782737142675 0.9999003278005271
2200.7849379265126 0.9999043143178936
2200.787138712551 0.9999137016233203
2200.78933950079 0.9999287070870811
2200.79154029123 0.9999472073082245
2200.7937410838704 0.9999619644088104
2200.795941878712 0.9999660975582628
2200.798142675754 0.999965177311405
2200.800343474997 0.9999651851076843
2200.802544276441 0.9999663365946859
2200.804745080086 0.9999677982950483
2200.806945885931 0.9999705615787434
2200.8091466939773 0.9999756643519798
2200.811347504224 0.9999813749698425
2200.813548316672 0.999982964414267
2200.8157491313204 0.9999792944814273
2200.8179499481703 0.9999752921982753
2200.8201507672206 0.9999743789160992
2200.8223515884715 0.999976624961997
2200.8245524119234 0.9999803093537666
2200.826753237576 0.9999823436612205
2200.8289540654296 0.9999795241388174
2200.8311548954844 0.9999731096712449
2200.833355727739 0.9999675465535798
2200.8355565621955 0.9999650935514256
2200.8377573988523 0.9999646605683279
2200.83995823771 0.9999625559876343
2200.842159078769 0.999956375877943
2200.844359922028 0.9999484533350868
2200.8465607674884 0.9999420631005721
2200.8487616151497 0.9999388281828356
2200.850962465012 0.9999393805183338
2200.853163317074 0.9999431499837115
2200.855364171338 0.9999465561765996
2200.8575650278026 0.999944985960434
2200.8597658864683 0.9999408331321814
2200.8619667473345 0.9999398081871913
2200.864167610401 0.9999443127293047
2200.8663684756693 0.9999536316056478
2200.8685693431385 0.9999644830072869
2200.870770212808 0.9999726061777267
2200.8729710846787 0.9999767235275664
2200.87517195875 0.9999777160564801
2200.8773728350225 0.9999748784091018
2200.8795737134956 0.9999670754093318
2200.8817745941697 0.9999553750770979
2200.8839754770443 0.9999422338516932
2200.8861763621203 0.9999298212639253
2200.888377249397 0.9999199298816867
2200.890578138875 0.9999142821666541
2200.8927790305534 0.9999143316025291
2200.8949799244324 0.9999209185043655
2200.897180820513 0.9999340582102886
2200.899381718794 0.9999525127517875
2200.901582619276 0.9999714856601074
2200.903783521959 0.9999788525949876
2200.905984426843 0.9999723861632535
2200.908185333928 0.9999648926929836
2200.9103862432135 0.9999619180211782
2200.9125871547003 0.9999632051213528
2200.9147880683877 0.9999665807209771
2200.916988984276 0.9999704823121369
2200.9191899023654 0.9999748875992739
2200.921390822655 0.999978575774021
2200.9235917451465 0.9999783899493258
2200.9257926698388 0.9999739368093081
2200.9279935967315 0.9999675896529808
2200.9301945258253 0.9999605827808474
2200.9323954571205 0.9999525454512881
2200.934596390616 0.9999404593607497
2200.936797326313 0.9999216871174311
2200.9389982642106 0.9999013686690731
2200.941199204309 0.9998860013637292
2200.9434001466084 0.9998783824321779
2200.945601091109 0.9998792330947304
2200.9478020378106 0.9998884440266381
2200.9500029867127 0.9999050423281346
2200.952203937816 0.9999260523137826
2200.9544048911207 0.9999447536437794
2200.9566058466257 0.999952713567113
2200.958806804332 0.9999491980854501
2200.9610077642396 0.9999416445229283
2200.9632087263476 0.9999361331279458
2200.9654096906565 0.9999352292494268
2200.967610657167 0.9999388839909671
2200.969811625878 0.9999434830399095
2200.9720125967897 0.999943325331835
2200.974213569903 0.9999394156370144
2200.976414545217 0.9999369582180716
2200.9786155227316 0.9999376619200108
2200.980816502448 0.9999403660086289
2200.9830174843646 0.9999418324925391
2200.9852184684823 0.9999381463474125
2200.9874194548015 0.9999313796653142
2200.989620443321 0.9999276708856067
2200.991821434042 0.9999304103630243
2200.994022426964 0.9999400301906043
2200.9962234220866 0.9999541549584875
2200.9984244194106 0.9999651240562136
2201.000625418935 0.9999642428089821
2201.002826420661 0.9999561152430028
2201.0050274245878 0.9999487127832625
2201.0072284307157 0.9999444592287203
2201.0094294390447 0.9999414726082004
2201.0116304495746 0.999934246386012
2201.0138314623055 0.9999202200782552
2201.0160324772373 0.9999048154478432
2201.01823349437 0.9998934480937277
2201.020434513704 0.9998885533541226
2201.022635535239 0.9998909255293934
2201.0248365589746 0.9998998651919762
2201.027037584912 0.9999105550077632
2201.0292386130495 0.9999112218026894
2201.0314396433887 0.999900012117286
2201.033640675929 0.9998882020140113
2201.03584171067 0.9998818956369397
2201.038042747612 0.9998830241464439
2201.0402437867556 0.9998921690319595
2201.0424448280996 0.9999091354229959
2201.044645871645 0.9999318416308834
2201.046846917391 0.9999493083548869
2201.0490479653386 0.9999427035504175
2201.051249015487 0.9999247750282829
2201.0534500678364 0.99990985982596
2201.055651122387 0.9999014826087562
2201.0578521791385 0.9999004393053179
2201.0600532380913 0.9999060051434808
2201.062254299245 0.9999144422121369
2201.0644553626 0.9999171682871031
2201.066656428156 0.9999077331554427
2201.0688574959127 0.9998912733611638
2201.0710585658708 0.9998760218235337
2201.07325963803 0.999866359485765
2201.07546071239 0.9998638643418996
2201.077661788951 0.9998689710741613
2201.0798628677135 0.9998812974919957
2201.082063948677 0.9998980018184036
2201.0842650318414 0.999910240894146
2201.086466117207 0.9999106330375535
2201.088667204773 0.9999033037794047
2201.090868294541 0.9998915191057233
2201.0930693865093 0.999878981994563
2201.0952704806796 0.9998704367479239
2201.0974715770503 0.9998684579726599
2201.0996726756225 0.9998735185185542
2201.1018737763957 0.9998841564686785
2201.10407487937 0.9998961897892865
2201.1062759845454 0.9999047703594853
2201.1084770919215 0.9999103122125793
2201.110678201499 0.9999168145016116
2201.112879313278 0.9999268369267504
2201.1150804272575 0.9999397717749671
2201.1172815434384 0.9999479337831232
2201.1194826618207 0.9999405371176977
2201.1216837824036 0.9999254425443511
2201.123884905188 0.9999132717727346
2201.1260860301736 0.9999069372701156
2201.12828715736 0.9999059514478886
2201.1304882867475 0.9999082619418322
2201.132689418336 0.9999113860475634
2201.1348905521263 0.9999122207476533
2201.1370916881174 0.9999051968115377
2201.1392928263094 0.9998895655528779
2201.141493966703 0.9998732284413111
2201.1436951092974 0.9998617964739416
2201.145896254093 0.9998567798980571
2201.1480974010897 0.9998578059769698
2201.1502985502875 0.9998632812549291
2201.1524997016863 0.9998689727667288
2201.1547008552866 0.9998671756327253
2201.1569020110883 0.9998580954942574
2201.159103169091 0.9998506585906446
2201.161304329294 0.999849280922923
2201.163505491699 0.9998535284511862
2201.165706656305 0.999859498450158
2201.1679078231123 0.9998631709534472
2201.1701089921207 0.9998664512275794
