Atmospheric Species: CH4_CO_CO2_H2O_NH3
Metallicity: 100
C/O_Ratio: 1.5
Wavelength[nm] Flux_variation
2199.999397930935 0.9998495309834082
2200.001597931433 0.9998618616481172
2200.003797934131 0.9998732158307889
2200.0059979390285 0.9998858688842749
2200.0081979461265 0.9999031122426875
2200.010397955424 0.999926092960958
2200.0125979669224 0.9999517157575017
2200.01479798062 0.999968559369433
2200.016997996518 0.9999659049604115
2200.019198014616 0.9999523985146912
2200.021398034914 0.9999359316980645
2200.023598057412 0.9999172011457083
2200.0257980821098 0.9998984797837475
2200.027998109008 0.9998841632123949
2200.030198138106 0.9998770330430016
2200.032398169404 0.9998780394094805
2200.034598202902 0.999887151621295
2200.0367982386 0.9999033935853074
2200.0389982764987 0.9999235399309152
2200.041198316597 0.9999401767631974
2200.043398358895 0.9999482044690767
2200.0455984033933 0.9999530471901008
2200.0477984500917 0.9999597975494204
2200.04999849899 0.9999682508030694
2200.052198550088 0.9999734960686811
2200.0543986033867 0.9999692726269831
2200.0565986588854 0.9999580337449965
2200.058798716584 0.9999463259805806
2200.0609987764824 0.9999373334945091
2200.0631988385812 0.9999324036215518
2200.06539890288 0.9999321989225619
2200.0675989693787 0.9999365076457307
2200.0697990380777 0.999943562577182
2200.071999108977 0.9999473803038686
2200.074199182076 0.9999326981859249
2200.076399257375 0.9998997389780931
2200.078599334874 0.9998671233529166
2200.0807994145734 0.9998420450895091
2200.082999496473 0.9998258400038786
2200.0851995805724 0.9998183775276708
2200.087399666872 0.999819409840336
2200.0895997553716 0.9998289303789777
2200.0917998460714 0.9998470773303135
2200.093999938971 0.9998734574704491
2200.096200034071 0.9999057797001704
2200.098400131371 0.9999384370597819
2200.100600230871 0.999962527262748
2200.1028003325714 0.9999719994492996
2200.1050004364715 0.9999702512067888
2200.107200542572 0.9999640745897325
2200.1094006508724 0.9999580780777516
2200.111600761373 0.9999547049899501
2200.113800874074 0.9999542692070614
2200.116000988975 0.9999543785308058
2200.118201106076 0.9999511744759525
2200.120401225377 0.9999448601450183
2200.1226013468786 0.9999399206458334
2200.1248014705798 0.9999396542559492
2200.1270015964815 0.9999445102901237
2200.129201724583 0.9999518804791742
2200.1314018548846 0.999957040751707
2200.1336019873866 0.9999576106755766
2200.1358021220885 0.9999536274108392
2200.1380022589906 0.9999456753551684
2200.1402023980927 0.9999374540257223
2200.1424025393953 0.9999331153708306
2200.1446026828976 0.999933734784014
2200.1468028286004 0.9999329340167753
2200.149002976503 0.9999161804275932
2200.151203126606 0.9998904247740349
2200.1534032789095 0.9998690224982621
2200.1556034334126 0.99985553678898
2200.157803590116 0.9998505314615236
2200.16000374902 0.9998540658046855
2200.162203910123 0.9998661247120734
2200.1644040734272 0.9998862539328458
2200.1666042389315 0.9999119888018285
2200.168804406636 0.999934874180549
2200.17100457654 0.9999442299302973
2200.173204748645 0.9999451506136471
2200.1754049229494 0.9999445019960271
2200.1776050994545 0.9999373294715719
2200.179805278159 0.9999182168350156
2200.182005459065 0.9998969428947514
2200.18420564217 0.9998802547330271
2200.186405827476 0.9998660893218124
2200.188606014982 0.9998481629686217
2200.1908062046878 0.9998274876340012
2200.193006396594 0.9998109809607209
2200.1952065907003 0.9998018564314889
2200.197406787007 0.999800796714054
2200.1996069855136 0.9998079896993113
2200.201807186221 0.9998237103430396
2200.204007389128 0.9998484235471274
2200.2062075942354 0.9998814325569019
2200.208407801543 0.9999151204896994
2200.2106080110507 0.999929037302407
2200.2128082227587 0.9999273806201746
2200.215008436667 0.9999215252992714
2200.2172086527758 0.9999106873861566
2200.2194088710844 0.9998997620022807
2200.221609091593 0.9998945898065149
2200.2238093143023 0.9998973547429728
2200.2260095392116 0.9999080249422612
2200.228209766321 0.9999237828476017
2200.230409995631 0.9999354633687724
2200.232610227141 0.9999365172571525
2200.2348104608513 0.9999356499953391
2200.237010696762 0.9999396279974082
2200.2392109348725 0.9999493696256658
2200.2414111751837 0.9999626719436299
2200.243611417695 0.9999747260800953
2200.245811662406 0.9999807320221382
2200.248011909318 0.9999784727276786
2200.25021215843 0.9999671732434495
2200.2524124097417 0.9999502986470766
2200.254612663254 0.9999344921165019
2200.256812918967 0.9999240859410752
2200.2590131768798 0.9999206773976844
2200.2612134369933 0.9999244045302217
2200.2634136993065 0.9999344169042842
2200.26561396382 0.9999485726670473
2200.2678142305344 0.9999627518315951
2200.2700144994487 0.9999699075187407
2200.272214770563 0.999954701248708
2200.274415043878 0.9999179709696344
2200.2766153193934 0.9998814230951558
2200.2788155971084 0.9998524620396387
2200.281015877024 0.9998324916205703
2200.28321615914 0.9998214704690965
2200.2854164434566 0.9998190300891392
2200.287616729973 0.9998249406976141
2200.2898170186895 0.999838781882754
2200.2920173096068 0.9998581240944479
2200.294217602724 0.9998755925254648
2200.296417898042 0.9998865824975839
2200.29861819556 0.9998976630303841
2200.3008184952782 0.9999121548643776
2200.3030187971967 0.9999151136968865
2200.3052191013153 0.9998935563170458
2200.307419407635 0.9998705110594623
2200.309619716154 0.999855222679304
2200.3118200268736 0.9998485672990496
2200.314020339794 0.9998498020057754
2200.3162206549146 0.9998557333338255
2200.3184209722353 0.9998586460208955
2200.320621291756 0.9998556347564683
2200.3228216134776 0.9998542544308596
2200.3250219373995 0.9998597749870852
2200.3272222635214 0.9998736328648407
2200.3294225918435 0.9998957058072943
2200.3316229223665 0.9999238111591187
2200.3338232550896 0.9999471114316929
2200.3360235900127 0.9999479500089097
2200.3382239271364 0.9999393282255765
2200.34042426646 0.9999345828408734
2200.342624607985 0.9999358560958278
2200.3448249517096 0.99994252419008
2200.3470252976344 0.9999528517815486
2200.34922564576 0.9999630944011884
2200.3514259960857 0.9999667806774073
2200.3536263486117 0.9999618887854291
2200.355826703338 0.9999537593430133
2200.3580270602647 0.9999442183614107
2200.3602274193922 0.9999266177980265
2200.36242778072 0.9998977410877233
2200.3646281442475 0.9998678400538817
2200.3668285099757 0.999844333636538
2200.3690288779044 0.9998293225357663
2200.371229248033 0.9998229773894624
2200.3734296203625 0.999825143207733
2200.3756299948923 0.9998356667690266
2200.377830371622 0.9998535054299533
2200.3800307505526 0.9998734723569753
2200.3822311316835 0.999886753969497
2200.3844315150145 0.9998952949487268
2200.386631900546 0.999905857191919
2200.388832288278 0.9999172798181666
2200.3910326782106 0.9999251424004181
2200.3932330703433 0.9999313357972709
2200.3954334646764 0.9999391731317381
2200.39763386121 0.9999424162295254
2200.399834259944 0.9999305876731323
2200.402034660878 0.9999134189215858
2200.404235064013 0.9999014135520035
2200.4064354693483 0.9998970723694051
2200.4086358768836 0.9999000933806087
2200.4108362866195 0.9999084142462316
2200.413036698556 0.9999184545404494
2200.415237112693 0.9999281170126442
2200.4174375290304 0.9999373638421392
2200.419637947568 0.9999360149868994
2200.421838368306 0.999910255356629
2200.4240387912446 0.9998783777530154
2200.4262392163832 0.9998524700958337
2200.428439643723 0.9998350151985628
2200.430640073262 0.9998262767397751
2200.432840505003 0.9998260584071222
2200.435040938943 0.9998341820221017
2200.4372413750843 0.9998497252270048
2200.4394418134257 0.9998648400356696
2200.4416422539675 0.999859204976556
2200.4438426967104 0.9998421057757982
2200.4460431416533 0.9998301821446186
2200.4482435887962 0.9998264993456989
2200.45044403814 0.9998313374067337
2200.452644489684 0.9998448487214561
2200.4548449434287 0.9998670497916219
2200.457045399374 0.9998969882655472
2200.4592458575194 0.9999315277971929
2200.4614463178655 0.9999640109638893
2200.463646780412 0.9999863633525746
2200.465847245159 0.9999967156481466
2200.468047712106 1.0
2200.470248181254 0.9999983739743945
2200.4724486526025 0.9999865302406601
2200.4746491261512 0.9999632255332455
2200.4768496019005 0.9999365379320854
2200.4790500798504 0.9999123903653113
2200.4812505600003 0.9998932204726668
2200.483451042351 0.9998798115109714
2200.4856515269025 0.9998722740877797
2200.487852013654 0.9998707494289651
2200.4900525026064 0.9998756838782145
2200.492252993759 0.9998875566560174
2200.494453487112 0.9999060739391558
2200.4966539826655 0.9999285015683377
2200.49885448042 0.9999486176707307
2200.5010549803746 0.9999631742003832
2200.5032554825298 0.9999744310322917
2200.5054559868854 0.9999789641382117
2200.5076564934416 0.9999721312043431
2200.5098570021983 0.9999599447629127
2200.5120575131555 0.9999470354162175
2200.514258026313 0.999931121532909
2200.5164585416715 0.9999114117730771
2200.5186590592302 0.9998928650824365
2200.5208595789895 0.9998798355221418
2200.5230601009494 0.9998739306968911
2200.5252606251097 0.9998743767915731
2200.5274611514706 0.9998750209489616
2200.529661680032 0.9998650677513999
2200.531862210794 0.9998492847945027
2200.5340627437563 0.9998379612249925
2200.5362632789193 0.9998333181451913
2200.5384638162827 0.9998323200928453
2200.5406643558467 0.9998282400829055
2200.5428648976113 0.9998197362198066
2200.5450654415763 0.9998127332783985
2200.547265987742 0.9998107557988019
2200.549466536108 0.999814655862312
2200.5516670866746 0.9998246305415966
2200.553867639442 0.9998399526586356
2200.55606819441 0.9998540590463625
2200.5582687515785 0.9998526486041244
2200.560469310947 0.9998419654642262
2200.562669872517 0.9998353953101544
2200.564870436287 0.999836625001013
2200.5670710022578 0.999846400694496
2200.5692715704286 0.9998649106328532
2200.571472140801 0.9998903534552944
2200.573672713373 0.9999084083423679
2200.575873288146 0.9999009833822419
2200.578073865119 0.999889411718862
2200.5802744442935 0.9998850822398946
2200.5824750256684 0.9998892695582718
2200.5846756092433 0.9999015904426068
2200.586876195019 0.9999201595175885
2200.5890767829956 0.9999400495302007
2200.5912773731725 0.9999554791140935
2200.59347796555 0.9999660865209176
2200.5956785601284 0.9999716698190626
2200.597879156907 0.9999703018694371
2200.6000797558863 0.9999646264894966
2200.6022803570663 0.9999576656090745
2200.604480960447 0.9999483725285421
2200.6066815660283 0.9999335444491236
2200.60888217381 0.9999152804226569
2200.611082783792 0.9998998530940942
2200.613283395975 0.9998911270525824
2200.6154840103586 0.9998904568675211
2200.617684626943 0.9998981169019795
2200.619885245728 0.9999137618247634
2200.6220858667134 0.9999359738010168
2200.6242864898995 0.9999601310319819
2200.626487115286 0.9999748868279915
2200.6286877428734 0.9999730349973606
2200.6308883726615 0.9999633544160287
2200.63308900465 0.9999537976857875
2200.6352896388394 0.999947367895028
2200.637490275229 0.9999450117829853
2200.63969091382 0.9999468981181415
2200.641891554611 0.9999523493277127
2200.6440921976027 0.9999589350059558
2200.646292842795 0.9999629178470523
2200.6484934901882 0.999962043698712
2200.650694139782 0.9999557732013752
2200.6528947915763 0.9999460787692839
2200.655095445571 0.9999374674906224
2200.657296101767 0.9999326636945205
2200.659496760163 0.9999316267556858
2200.66169742076 0.9999334245082147
2200.663898083558 0.9999379628562051
2200.6660987485557 0.9999455492143569
2200.668299415755 0.9999550472782915
2200.6705000851543 0.9999616487434564
2200.6727007567547 0.9999543630813414
2200.6749014305556 0.999932931625743
2200.677102106557 0.9999115839949211
2200.67930278476 0.9998970562283847
2200.6815034651627 0.9998909155252652
2200.6837041477665 0.999893435515314
2200.685904832571 0.9999044435274829
2200.6881055195763 0.9999232040653325
2200.6903062087817 0.9999474921259732
2200.6925069001886 0.9999710584597272
2200.6947075937956 0.9999828788016312
2200.6969082896035 0.9999797585460836
2200.699108987612 0.9999689847261443
2200.701309687821 0.9999574337426157
2200.7035103902313 0.9999490069796879
2200.7057110948417 0.9999443787210107
2200.707911801653 0.9999400145948724
2200.710112510665 0.9999265913496209
2200.7123132218776 0.9998985396750328
2200.7145139352915 0.9998660817473503
2200.7167146509055 0.9998388394015286
2200.7189153687204 0.9998199750023193
2200.721116088736 0.9998097693738582
2200.7233168109524 0.9998079874906767
2200.72551753537 0.9998145919248329
2200.7277182619873 0.9998298061189952
2200.729918990806 0.9998539393613511
2200.7321197218253 0.9998861419520432
2200.7343204550452 0.9999211790779616
2200.736521190466 0.9999446070783441
2200.7387219280877 0.9999505887482641
2200.7409226679097 0.9999515879625125
2200.7431234099327 0.9999533304481428
2200.7453241541566 0.9999546657716436
2200.747524900581 0.999953278691459
2200.749725649206 0.9999498473608397
2200.751926400032 0.9999463070168058
2200.754127153059 0.9999425437307115
2200.7563279082865 0.9999368954227378
2200.7585286657145 0.999929073786693
2200.7607294253435 0.9999206449076327
2200.7629301871734 0.9999138974346647
2200.765130951204 0.9999110925980566
2200.767331717435 0.9999129377317134
2200.769532485867 0.9999167385189008
2200.7717332565 0.9999169442726175
2200.7739340293333 0.9999125068341804
2200.7761348043678 0.9999073210162844
2200.7783355816027 0.9999032174021791
2200.7805363610387 0.9999005230219484
2200.782737142675 0.9999003459395406
2200.7849379265126 0.9999043324604087
2200.787138712551 0.9999137197648218
2200.78933950079 0.999928725217408
2200.79154029123 0.9999472253770554
2200.7937410838704 0.9999619823181723
2200.795941878712 0.9999661154355922
2200.798142675754 0.9999651952428947
2200.800343474997 0.9999652029998167
2200.802544276441 0.999966354274383
2200.804745080086 0.9999678154487884
2200.806945885931 0.9999705777257072
2200.8091466939773 0.999975678943725
2200.811347504224 0.9999813878139332
2200.813548316672 0.9999829762856146
2200.8157491313204 0.9999793065741021
2200.8179499481703 0.9999753047489711
2200.8201507672206 0.9999743917695645
2200.8223515884715 0.9999766383591087
2200.8245524119234 0.9999803237373713
2200.826753237576 0.9999823587750392
2200.8289540654296 0.9999795390773003
2200.8311548954844 0.9999731245551002
2200.833355727739 0.9999675617604618
2200.8355565621955 0.9999651090079511
2200.8377573988523 0.9999646758152589
2200.83995823771 0.9999625704542863
2200.842159078769 0.9999563903499062
2200.844359922028 0.9999484689355342
2200.8465607674884 0.9999420798235708
2200.8487616151497 0.9999388456158247
2200.850962465012 0.9999393983278827
2200.853163317074 0.9999431679848355
2200.855364171338 0.9999465742783143
2200.8575650278026 0.9999450040992379
2200.8597658864683 0.999940851276562
2200.8619667473345 0.999939826330133
2200.864167610401 0.9999443308664712
2200.8663684756693 0.9999536497284345
2200.8685693431385 0.9999645011042761
2200.870770212808 0.9999726242471801
2200.8729710846787 0.9999767415618318
2200.87517195875 0.9999777340120524
2200.8773728350225 0.9999748962874557
2200.8795737134956 0.999967093331235
2200.8817745941697 0.999955393111271
2200.8839754770443 0.9999422519601415
2200.8861763621203 0.9999298394009343
2200.888377249397 0.9999199480263339
2200.890578138875 0.999914300312114
2200.8927790305534 0.9999143497440316
2200.8949799244324 0.9999209366217989
2200.897180820513 0.9999340761835798
2200.899381718794 0.9999525299401846
2200.901582619276 0.9999714998382723
2200.903783521959 0.9999788635082304
2200.905984426843 0.999972399412434
2200.908185333928 0.9999649085275509
2200.9103862432135 0.99996193507586
2200.9125871547003 0.9999632226528974
2200.9147880683877 0.999966598317895
2200.916988984276 0.9999704996007083
2200.9191899023654 0.9999749042266689
2200.921390822655 0.9999785918892441
2200.9235917451465 0.9999784066106344
2200.9257926698388 0.999973954375214
2200.9279935967315 0.9999676076383583
2200.9301945258253 0.9999606008797409
2200.9323954571205 0.9999525635750319
2200.934596390616 0.9999404774911926
2200.936797326313 0.999921705254362
2200.9389982642106 0.9999013868116978
2200.941199204309 0.9998860195089463
2200.9434001466084 0.9998784005782398
2200.945601091109 0.9998792512410354
2200.9478020378106 0.9998884621725301
2200.9500029867127 0.9999050604687354
2200.952203937816 0.9999260704141675
2200.9544048911207 0.9999447715787669
2200.9566058466257 0.999952731336437
2200.958806804332 0.9999492159810512
2200.9610077642396 0.9999416625686957
2200.9632087263476 0.9999361512334812
2200.9654096906565 0.9999352473600311
2200.967610657167 0.999938902048103
2200.969811625878 0.9999435009419564
2200.9720125967897 0.9999433431290389
2200.974213569903 0.9999394335169153
2200.976414545217 0.9999369762023844
2200.9786155227316 0.9999376799743697
2200.980816502448 0.9999403841067313
2200.9830174843646 0.9999418506175088
2200.9852184684823 0.9999381644868606
2200.9874194548015 0.9999313978093812
2200.989620443321 0.9999276890286383
2200.991821434042 0.9999304284911379
2200.994022426964 0.9999400481818267
2200.9962234220866 0.9999541716815303
2200.9984244194106 0.9999651348479394
2201.000625418935 0.9999642501168504
2201.002826420661 0.9999561269114209
2201.0050274245878 0.9999487280523803
2201.0072284307157 0.9999444762289152
2201.0094294390447 0.9999414903936382
2201.0116304495746 0.999934264468492
2201.0138314623055 0.9999202382184527
2201.0160324772373 0.9999048335939706
2201.01823349437 0.9998934662403949
2201.020434513704 0.9998885715007724
2201.022635535239 0.9998909436758874
2201.0248365589746 0.9998998833380449
2201.027037584912 0.9999105731532214
2201.0292386130495 0.9999112399486058
2201.0314396433887 0.9999000302632925
2201.033640675929 0.9998882201593747
2201.03584171067 0.9998819137810667
2201.038042747612 0.9998830422875575
2201.0402437867556 0.9998921871634592
2201.0424448280996 0.9999091535171324
2201.044645871645 0.9999318595770897
2201.046846917391 0.9999493261318387
2201.0490479653386 0.9999427216110957
2201.051249015487 0.9999247931635431
2201.0534500678364 0.9999098779691764
2201.055651122387 0.9999015007537789
2201.0578521791385 0.9999004574508787
2201.0600532380913 0.9999060232889506
2201.062254299245 0.9999144603562365
2201.0644553626 0.9999171864239421
2201.066656428156 0.9999077512811942
2201.0688574959127 0.9998912914914233
2201.0710585658708 0.9998760399647776
2201.07325963803 0.9998663776311765
2201.07546071239 0.999863882488138
2201.077661788951 0.9998689892206314
2201.0798628677135 0.9998813156383625
2201.082063948677 0.9998980199610231
2201.0842650318414 0.9999102590138391
2201.086466117207 0.9999106511305044
2201.088667204773 0.9999033218816649
2201.090868294541 0.9998915372328234
2201.0930693865093 0.9998790001350257
2201.0952704806796 0.999870454892484
2201.0974715770503 0.9998684761183733
2201.0996726756225 0.9998735366645122
2201.1018737763957 0.9998841746135279
2201.10407487937 0.9998962079277173
2201.1062759845454 0.999904788484166
2201.1084770919215 0.9999103303267559
2201.110678201499 0.9999168326118064
2201.112879313278 0.9999268550346828
2201.1150804272575 0.9999397898824991
2201.1172815434384 0.9999479519058019
2201.1194826618207 0.9999405552593438
2201.1216837824036 0.9999254606895573
2201.123884905188 0.9999132899157402
2201.1260860301736 0.9999069554102633
2201.12828715736 0.999905969583928
2201.1304882867475 0.9999082800499194
2201.132689418336 0.9999114041016238
2201.1348905521263 0.999912238811692
2201.1370916881174 0.9999052149365928
2201.1392928263094 0.9998895836983547
2201.141493966703 0.9998732465880895
2201.1436951092974 0.9998618146205736
2201.145896254093 0.9998567980446029
2201.1480974010897 0.9998578241235294
2201.1502985502875 0.9998632994015668
2201.1524997016863 0.999868990913415
2201.1547008552866 0.9998671937793578
2201.1569020110883 0.9998581136407753
2201.159103169091 0.999850676737059
2201.161304329294 0.9998492990693164
2201.163505491699 0.9998535465976061
2201.165706656305 0.9998595165960964
2201.1679078231123 0.9998631890936076
2201.1701089921207 0.9998664693248321
