Atmospheric Species: CH4_CO_CO2_H2O_NH3
Metallicity: 1000
C/O_Ratio: 0.5
Wavelength[nm] Flux_variation
1999.999812280322 0.9999809232809436
2000.001812281134 0.9999811820322094
2000.003812283946 0.9999824238269587
2000.0058122887588 0.9999845712702412
2000.0078122955706 0.9999873395671142
2000.0098123043829 0.9999899331411316
2000.0118123151951 0.9999915149448195
2000.0138123280071 0.9999927787190172
2000.0158123428193 0.9999945573878665
2000.017812359632 0.9999964787973152
2000.0198123784444 0.9999977232992691
2000.0218123992565 0.9999982847430986
2000.0238124220684 0.9999984506771328
2000.025812446881 0.999998183416246
2000.0278124736938 0.9999981064040565
2000.0298125025063 0.99999891515103
2000.0318125333185 0.9999996876097811
2000.033812566131 0.9999994128424184
2000.0358126009435 0.9999979150309422
2000.037812637756 0.9999949908720454
2000.0398126765688 0.9999913157438856
2000.0418127173812 0.9999879385944116
2000.0438127601935 0.9999853804747849
2000.0458128050066 0.999983777337409
2000.0478128518196 0.9999831591608562
2000.0498129006319 0.9999835348156676
2000.0518129514448 0.9999849002578955
2000.053813004258 0.9999872280747645
2000.055813059071 0.9999903918247268
2000.0578131158836 0.9999937568663636
2000.0598131746967 0.9999942388223402
2000.06181323551 0.9999907478995862
2000.0638132983227 0.9999886224436769
2000.0658133631362 0.9999896107194676
2000.0678134299496 0.9999932120583974
2000.0698134987629 0.9999969998914997
2000.0718135695763 0.9999977414593421
2000.0738136423897 0.9999929642099489
2000.0758137172033 0.9999857837600832
2000.0778137940172 0.9999813139822218
2000.079813872831 0.9999806698915978
2000.0818139536448 0.9999838801180142
2000.0838140364588 0.9999891475596037
2000.0858141212727 0.9999882798046025
2000.087814208087 0.9999847949927819
2000.089814296901 0.9999819990790747
2000.091814387715 0.9999801278109294
2000.0938144805295 0.9999792203931399
2000.095814575344 0.9999793007518832
2000.0978146721586 0.9999803659555185
2000.0998147709731 0.9999823874941256
2000.101814871788 0.9999853265448495
2000.1038149746025 0.9999890804093509
2000.1058150794172 0.9999928767540752
2000.1078151862328 0.9999940140189687
2000.1098152950476 0.9999926887529521
2000.1118154058631 0.9999915376043997
2000.1138155186784 0.9999912501922686
2000.115815633494 0.9999919544584775
2000.1178157503095 0.9999936257816341
2000.1198158691257 0.9999959158975047
2000.121815989941 0.9999979455454778
2000.123816112757 0.9999989582465917
2000.1258162375732 0.9999992388069898
2000.1278163643894 0.9999992900715048
2000.1298164932057 0.9999992646369232
2000.1318166240221 0.9999991960903624
2000.1338167568388 0.9999990984711064
2000.1358168916554 0.9999989464387014
2000.1378170284725 0.9999987061747719
2000.1398171672895 0.9999981236059108
2000.1418173081065 0.9999963790237207
2000.1438174509237 0.9999938943974725
2000.145817595741 0.9999927656454978
2000.1478177425586 0.9999933895564994
2000.1498178913766 0.9999943010599318
2000.1518180421942 0.9999948732444031
2000.1538181950127 0.9999955052050669
2000.1558183498312 0.9999960760017246
2000.1578185066492 0.9999954054647199
2000.1598186654676 0.9999886680526799
2000.1618188262864 0.9999784860657062
2000.1638189891055 0.9999714542636556
2000.165819153924 0.9999682835905878
2000.1678193207435 0.999969147578013
2000.1698194895628 0.9999739847296263
2000.1718196603822 0.9999825937918717
2000.1738198332023 0.9999925746392426
2000.1758200080221 0.9999955722244876
2000.177820184842 0.9999953548831092
2000.1798203636622 0.9999941617050604
2000.1818205444827 0.9999879415909465
2000.183820727303 0.9999773871625977
2000.1858209121242 0.9999697759742856
2000.1878210989448 0.9999659797469921
2000.1898212877659 0.9999662876948623
2000.1918214785871 0.9999706660606028
2000.1938216714088 0.9999788399161964
2000.19582186623 0.9999895000851389
2000.1978220630526 0.9999936884460106
2000.1998222618745 0.9999936586998823
2000.2018224626968 0.9999931609356916
2000.2038226655195 0.9999915931621802
2000.205822870342 0.999988638525621
2000.2078230771644 0.9999868568888957
2000.2098232859878 0.9999877037498324
2000.2118234968113 0.9999897991931441
2000.213823709635 0.9999905411141456
2000.2158239244584 0.9999900191553959
2000.2178241412826 0.9999874183786015
2000.2198243601067 0.9999753204223649
2000.2218245809313 0.999962621277196
2000.2238248037554 0.9999526395421692
2000.2258250285802 0.9999469308096312
2000.2278252554056 0.9999463826601073
2000.2298254842308 0.9999510443262843
2000.2318257150564 0.9999602831847616
2000.2338259478825 0.9999724535964044
2000.2358261827083 0.9999859719154991
2000.2378264195343 0.9999901540948708
2000.2398266583607 0.9999910313734588
2000.2418268991873 0.9999916838226638
2000.2438271420144 0.9999922843613942
2000.2458273868415 0.9999928426663152
2000.247827633669 0.9999933233137873
2000.2498278824967 0.9999936782944758
2000.2518281333246 0.9999938926770369
2000.2538283861531 0.9999939932767882
2000.255828640981 0.9999940845143347
2000.2578288978098 0.9999943154051344
2000.2598291566387 0.9999945114004353
2000.2618294174679 0.9999940327961883
2000.2638296802972 0.9999930730953371
2000.2658299451268 0.9999930697352671
2000.267830211957 0.9999944323432882
2000.2698304807873 0.9999958621158364
2000.271830751618 0.9999964948902944
2000.2738310244486 0.9999967110850552
2000.2758312992798 0.9999967697513258
2000.277831576111 0.999996629138469
2000.2798318549428 0.9999961269439537
2000.2818321357747 0.9999953214749185
2000.283832418607 0.9999949781401394
2000.2858327034396 0.9999952715467592
2000.2878329902726 0.9999950511888855
2000.2898332791053 0.9999948743293997
2000.2918335699385 0.9999954639476708
2000.2938338627723 0.9999960907869412
2000.2958341576061 0.9999965181039084
2000.2978344544404 0.9999969552703517
2000.299834753275 0.9999972780524277
2000.30183505411 0.9999973930321763
2000.3038353569448 0.9999973572440839
2000.3058356617803 0.9999973314157449
2000.3078359686162 0.9999974771277622
2000.3098362774524 0.9999977535716295
2000.3118365882883 0.999997900564624
2000.313836901125 0.999997549398978
2000.3158372159623 0.9999963985323876
2000.3178375327993 0.9999946647351021
2000.319837851637 0.9999930562636508
2000.321838172475 0.9999919917543241
2000.3238384953136 0.9999912257524491
2000.3258388201518 0.999990262501047
2000.3278391469905 0.9999895163494629
2000.3298394758299 0.9999894146910925
2000.331839806669 0.9999896953471719
2000.3338401395092 0.9999904521005991
2000.3358404743494 0.9999919112137433
2000.33784081119 0.9999938636498694
2000.3398411500311 0.9999953437453234
2000.3418414908724 0.9999963892291894
2000.3438418337141 0.9999974088671963
2000.3458421785558 0.9999972897110546
2000.3478425253984 0.9999954291168289
2000.3498428742414 0.9999932346801476
2000.351843225084 0.9999914513443829
2000.353843577928 0.9999908756258188
2000.3558439327714 0.9999913515269541
2000.3578442896157 0.999989294788203
2000.3598446484605 0.9999864140053779
2000.361845009305 0.9999863837615711
2000.3638453721503 0.9999896355036976
2000.3658457369957 0.9999942403169044
2000.3678461038414 0.999995490045706
2000.3698464726879 0.9999944593613156
2000.3718468435345 0.9999937028454655
2000.3738472163816 0.9999936790554698
2000.3758475912289 0.999994274914209
2000.3778479680766 0.9999950865562204
2000.3798483469245 0.9999958021207234
2000.3818487277726 0.9999964695393394
2000.3838491106217 0.9999970075032774
2000.3858494954707 0.9999966915766965
2000.3878498823208 0.9999955775398376
2000.389850271171 0.999995615167822
2000.391850662021 0.9999973119180049
2000.3938510548717 0.9999968177393885
2000.3958514497233 0.9999916464529855
2000.3978518465744 0.9999880451112141
2000.3998522454267 0.9999881944089788
2000.4018526462794 0.9999918822769293
2000.4038530491318 0.9999965734130926
2000.405853453985 0.9999986688819155
2000.407853860839 0.9999992297837782
2000.4098542696927 0.9999993990389726
2000.4118546805466 0.9999993520214329
2000.4138550934015 0.9999982066401891
2000.4158555082572 0.9999927173014298
2000.4178559251125 0.999986016493678
2000.4198563439686 0.9999828548737276
2000.421856764825 0.99998378456313
2000.423857187682 0.9999882873063448
2000.425857612539 0.999985787298887
2000.427858039397 0.9999760881600951
2000.4298584682556 0.9999696535704368
2000.4318588991136 0.9999671134175026
2000.4338593319726 0.9999686563951922
2000.4358597668324 0.9999741555747215
2000.4378602036923 0.9999833719144778
2000.4398606425525 0.999993338959504
2000.4418610834134 0.9999961606096941
2000.4438615262745 0.9999965230939698
2000.4458619711359 0.9999969881428863
2000.4478624179985 0.9999972447987374
2000.449862866861 0.9999968026041905
2000.4518633177238 0.9999965395075372
2000.453863770587 0.9999972477748351
2000.4558642254513 0.9999981465591249
2000.4578646823156 0.9999982940850729
2000.4598651411802 0.9999981160951447
2000.4618656020457 0.9999981312636295
2000.4638660649114 0.9999981709163316
2000.4658665297777 0.9999981671979304
2000.4678669966447 0.9999983138285498
2000.4698674655117 0.9999985593525546
2000.4718679363796 0.9999987783622146
2000.4738684092474 0.9999990018175251
2000.475868884116 0.9999992982014447
2000.477869360985 0.9999996102001012
2000.4798698398545 0.9999997492399213
2000.4818703207245 0.9999996066699882
2000.483870803595 0.9999993439286909
2000.485871288466 0.9999991783057358
2000.4878717753377 0.9999991113788389
2000.4898722642095 0.9999986494451262
2000.491872755082 0.9999969455906385
2000.4938732479552 0.9999949974062593
2000.4958737428285 0.9999949195195016
2000.4978742397027 0.9999967428676014
2000.4998747385769 0.9999983384276583
2000.5018752394521 0.9999987812902223
2000.5038757423272 0.9999988886043568
2000.5058762472029 0.9999988284664896
2000.5078767540795 0.9999985535221183
2000.509877262956 0.9999982343457303
2000.5118777738342 0.999997952453159
2000.5138782867118 0.9999976539694211
2000.5158788015904 0.9999968605153957
2000.5178793184689 0.9999935875902604
2000.519879837349 0.9999875756001179
2000.5218803582286 0.9999801987238912
2000.5238808811096 0.9999720913453987
2000.5258814059907 0.9999664626026111
2000.5278819328719 0.9999646534103573
2000.5298824617544 0.9999670186883803
2000.5318829926364 0.9999732246038595
2000.5338835255197 0.9999811825290941
2000.5358840604035 0.9999849016074365
2000.537884597288 0.9999871619679769
2000.5398851361724 0.9999901063257609
2000.5418856770577 0.9999934972901868
2000.5438862199437 0.9999962456755642
2000.54588676483 0.9999975549173488
2000.5478873117172 0.9999979520254072
2000.5498878606047 0.9999980334432292
2000.5518884114929 0.999998093018561
2000.5538889643813 0.9999980677417373
2000.5558895192703 0.9999976535608328
2000.5578900761602 0.9999966460940944
2000.5598906350506 0.9999956095637321
2000.5618911959411 0.9999954085739802
2000.5638917588328 0.9999958744376628
2000.5658923237245 0.9999964555370873
2000.567892890617 0.9999970241300975
2000.5698934595102 0.9999973730822614
2000.5718940304037 0.9999971358889771
2000.573894603298 0.9999963265314442
2000.575895178193 0.999995491961938
2000.5778957550883 0.999995113552908
2000.5798963339842 0.9999952961076637
2000.5818969148809 0.999995890917253
2000.5838974977776 0.9999967141426841
2000.5858980826756 0.9999974724579584
2000.5878986695739 0.9999978519879199
2000.589899258473 0.9999978846761568
2000.591899849372 0.9999977655903123
2000.5939004422726 0.9999974772516979
2000.5959010371732 0.999995359345107
2000.5979016340743 0.9999889603562881
2000.599902232976 0.9999839021485263
2000.6019028338785 0.999982799005918
2000.6039034367816 0.9999857749794915
2000.605904041685 0.9999916450725328
2000.6079046485897 0.9999921280190726
2000.6099052574943 0.9999876517712408
2000.6119058683998 0.9999834738106935
2000.613906481306 0.999980261426641
2000.6159070962128 0.9999780389608496
2000.61790771312 0.9999768345627321
2000.6199083320282 0.9999766864225039
2000.621908952937 0.9999775998086573
2000.623909575846 0.9999795190773856
2000.625910200756 0.9999822178555503
2000.627910827666 0.9999850955906118
2000.6299114565775 0.999988096230127
2000.6319120874891 0.9999915674457038
2000.633912720402 0.9999932719056344
2000.6359133553146 0.999992857193822
2000.6379139922285 0.9999909417369923
2000.6399146311426 0.9999877514014792
2000.6419152720573 0.999984620139678
2000.643915914973 0.9999823133760312
2000.645916559889 0.9999809627622872
2000.6479172068057 0.9999805703353898
2000.649917855723 0.9999800565965546
2000.6519185066409 0.999970319018478
2000.6539191595598 0.9999584810680905
2000.6559198144796 0.9999497173657671
2000.6579204713996 0.9999457196573717
2000.65992113032 0.9999469614145994
2000.6619217912419 0.9999533349047733
2000.6639224541639 0.9999638002489766
2000.6659231190863 0.9999768749573976
2000.6679237860099 0.9999878154403921
2000.6699244549338 0.9999897548770859
2000.6719251258585 0.9999906423641056
2000.6739257987842 0.999991363357575
2000.67592647371 0.9999918050644024
2000.6779271506366 0.9999918872875257
2000.6799278295641 0.9999920891212707
2000.6819285104925 0.9999928688807026
2000.6839291934211 0.9999937380905821
2000.6859298783502 0.9999942112945596
2000.6879305652806 0.9999937726051121
2000.6899312542112 0.9999902580325398
2000.691931945143 0.9999854092211365
2000.6939326380752 0.9999830774828766
2000.6959333330078 0.9999826903328948
2000.6979340299417 0.9999809024328584
2000.6999347288759 0.9999796551200945
2000.7019354298113 0.9999814104459775
2000.7039361327465 0.9999809691973558
2000.705936837683 0.9999729504157658
2000.7079375446203 0.9999675593565188
2000.7099382535578 0.9999661318758988
2000.7119389644963 0.9999688271798045
2000.7139396774357 0.9999754126502389
2000.7159403923756 0.9999854124332632
2000.7179411093164 0.9999928579796155
2000.7199418282578 0.9999937976138172
2000.7219425491999 0.9999941247082973
2000.7239432721424 0.9999948226022453
2000.7259439970862 0.999995894733039
2000.7279447240305 0.9999966205655568
2000.7299454529755 0.9999963465036353
2000.7319461839213 0.9999958361478405
2000.7339469168678 0.999996267961917
2000.735947651815 0.9999970807015407
2000.7379483887632 0.9999973088507652
2000.7399491277117 0.9999965286989636
2000.741949868661 0.9999948087532708
2000.7439506116116 0.99999385375421
2000.745951356562 0.9999948857305356
2000.7479521035139 0.9999968326894928
2000.7499528524665 0.9999976813065407
2000.7519536034195 0.999997494551511
2000.7539543563735 0.9999970021818169
2000.7559551113281 0.9999965860088055
2000.7579558682833 0.9999968888655794
2000.75995662724 0.9999977319493454
2000.7619573881968 0.9999980371290159
2000.7639581511546 0.9999974681731684
2000.7659589161133 0.9999967098890912
2000.7679596830724 0.9999965524295835
2000.7699604520324 0.9999970205613102
2000.7719612229935 0.9999977437469723
2000.7739619959548 0.9999984338277674
2000.775962770917 0.9999988768790613
2000.7779635478798 0.9999990196095682
2000.7799643268443 0.9999989507066135
2000.7819651078087 0.9999987310761255
2000.783965890774 0.9999981898379431
2000.7859666757402 0.9999969842052705
2000.7879674627075 0.9999955497827454
2000.789968251675 0.9999950499997824
2000.7919690426434 0.9999957566451553
2000.7939698356126 0.9999968759936941
2000.795970630583 0.9999978061818938
2000.7979714275539 0.9999985083081481
2000.7999722265256 0.9999989594431277
2000.8019730274982 0.9999990633540122
2000.8039738304715 0.9999982796147828
2000.8059746354456 0.9999961368944712
2000.8079754424211 0.9999942269552551
2000.8099762513964 0.9999940874329154
2000.8119770623734 0.9999953106771505
2000.8139778753505 0.999996382624542
2000.8159786903286 0.9999968951384787
2000.8179795073077 0.9999972722205801
2000.8199803262876 0.9999977356652202
2000.8219811472686 0.9999983518335547
2000.8239819702499 0.9999989766240533
2000.8259827952318 0.9999992418542916
2000.8279836222155 0.9999989094102897
2000.8299844511994 0.9999982078000236
2000.831985282184 0.9999972508994602
2000.8339861151694 0.9999958451630158
2000.835986950156 0.9999944109140216
2000.8379877871434 0.9999936160445356
2000.8399886261318 0.999993738887688
2000.8419894671204 0.9999946704486472
2000.84399031011 0.9999958987687394
2000.8459911551006 0.9999967282250471
2000.8479920020925 0.9999968019610653
2000.8499928510848 0.9999959022871341
2000.8519937020778 0.999994623512513
2000.853994555072 0.9999941784093536
2000.855995410067 0.9999945441802408
2000.8579962670626 0.9999956978924543
2000.8599971260594 0.9999970839418731
2000.861997987057 0.9999975367701963
2000.8639988500552 0.9999972315823811
2000.8659997150544 0.9999965554805789
2000.8680005820545 0.999994497090835
2000.8700014510555 0.9999868197930543
2000.872002322057 0.9999763062637639
2000.8740031950601 0.9999683386585903
2000.8760040700631 0.9999638637972182
2000.8780049470681 0.9999634370526286
2000.8800058260733 0.9999671827129241
2000.8820067070794 0.999974739970491
2000.8840075900869 0.9999856700449781
2000.886008475095 0.9999940445288096
2000.8880093621042 0.9999953970785738
2000.8900102511134 0.9999949235428502
2000.892011142124 0.9999941709257646
2000.8940120351353 0.9999938020514162
2000.8960129301477 0.9999940866591454
2000.8980138271609 0.9999950179629173
2000.900014726175 0.9999963436967507
2000.90201562719 0.9999975189717041
2000.904016530206 0.9999978195378181
2000.906017435223 0.9999968442169319
2000.908018342241 0.9999950560037214
2000.9100192512599 0.9999933550045498
2000.9120201622795 0.9999923065001137
2000.9140210752998 0.9999921196833305
2000.916021990322 0.9999928186378301
2000.918022907344 0.9999942710977122
2000.9200238263672 0.9999960749249914
2000.9220247473918 0.9999975460671005
2000.9240256704163 0.9999983185112671
2000.9260265954426 0.9999987025213846
2000.9280275224694 0.999999018294083
2000.9300284514975 0.9999992920550799
2000.9320293825265 0.999999402783153
2000.9340303155564 0.999999355178754
2000.9360312505873 0.9999993169387639
2000.9380321876183 0.9999993655802983
2000.9400331266515 0.9999993652514849
2000.9420340676843 0.9999988753460736
2000.9440350107188 0.9999970484408047
2000.9460359557547 0.9999942193296486
2000.9480369027913 0.9999922857673045
2000.9500378518283 0.9999921103494848
2000.9520388028668 0.9999932638571206
2000.9540397559056 0.9999946710650292
2000.9560407109461 0.999995382626437
2000.9580416679873 0.9999957766747403
2000.9600426270292 0.9999962246536789
2000.962043588072 0.9999965546183223
2000.9640445511163 0.9999966773370008
2000.966045516161 0.9999961824928542
2000.9680464832072 0.9999948990960476
2000.9700474522538 0.9999942861247317
2000.9720484233017 0.9999953549630085
2000.9740493963504 0.9999970982875823
2000.9760503713999 0.9999978547473987
2000.9780513484511 0.9999978359844335
2000.9800523275028 0.9999976602578385
2000.9820533085556 0.9999974234693244
2000.9840542916097 0.999996873505575
2000.9860552766643 0.9999954049898091
2000.9880562637197 0.9999933749529122
2000.9900572527768 0.999992056706584
2000.992058243834 0.9999871146324201
2000.9940592368928 0.9999766397992985
2000.996060231953 0.999968897917895
2000.9980612290135 0.9999649621759862
2001.0000622280747 0.9999651447836827
2001.0020632291375 0.9999694231862307
2001.004064232201 0.9999774879677752
2001.0060652372658 0.9999880316799692
2001.0080662443318 0.9999918472963437
2001.0100672533981 0.9999914444619672
2001.0120682644658 0.9999912846074008
2001.0140692775344 0.9999917053629025
2001.0160702926044 0.9999924680804523
2001.018071309675 0.9999931924470684
2001.0200723287464 0.9999938906157484
2001.0220733498195 0.9999949970844396
2001.0240743728934 0.9999961479993118
2001.0260753979683 0.9999967037390496
2001.0280764250442 0.9999966569871978
2001.0300774541208 0.9999960400732071
2001.0320784851986 0.9999948324389779
2001.0340795182774 0.9999933200276422
2001.0360805533578 0.9999920282268696
2001.0380815904384 0.9999901999166554
2001.0400826295206 0.9999877086062892
2001.0420836706037 0.9999851481928856
2001.0440847136879 0.9999826525731997
2001.046085758773 0.9999805143350534
2001.0480868058594 0.9999790367045988
2001.0500878549465 0.9999781671296147
2001.052088906035 0.9999777002061602
2001.054089959124 0.9999783162951847
