Atmospheric Species: CO
Metallicity: 1000
C/O_Ratio: 0.5
Wavelength[nm] Flux_variation
1199.9994359108223 0.9999999971148665
1200.0006359108581 0.9999999974267426
1200.001835912094 0.9999999977206845
1200.0030359145298 0.999999997996573
1200.0042359181657 0.9999999982546016
1200.0054359230016 0.9999999984947396
1200.0066359290374 0.9999999987170554
1200.0078359362733 0.9999999989215407
1200.0090359447092 0.9999999991082044
1200.010235954345 0.9999999992771054
1200.011435965181 0.9999999994282234
1200.0126359772169 0.9999999995616448
1200.013835990453 0.999999999677336
1200.015036004889 0.9999999997753882
1200.0162360205247 0.9999999998555328
1200.0174360373605 0.9999999999182455
1200.0186360553967 0.9999999999631027
1200.0198360746326 0.9999999999903995
1200.021036095069 1.0
1200.0222361167048 0.9999999999919587
1200.023436139541 0.9999999999660736
1200.024636163577 0.9999999999226346
1200.0258361888132 0.9999999998614677
1200.0270362152494 0.999999999782599
1200.0282362428854 0.9999999996860448
1200.0294362717216 0.9999999995754334
1200.030636301758 0.9999999994455281
1200.031836332994 0.9999999992979076
1200.0330363654305 0.9999999991324853
1200.034236399067 0.9999999989491944
1200.0354364339032 0.9999999987480648
1200.0366364699396 0.9999999985289398
1200.037836507176 0.9999999982919316
1200.0390365456126 0.9999999980370285
1200.040236585249 0.9999999977641375
1200.0414366260857 0.9999999974731802
1200.0426366681224 0.9999999971641422
1200.043836711359 0.999999996837018
1200.0450367557955 0.9999999964916616
1200.0462368014323 0.9999999961280457
1200.0474368482692 0.999999995746242
1200.048636896306 0.9999999953463592
1200.049836945543 0.999999994928321
1200.0510369959798 0.9999999944918047
1200.0522370476167 0.9999999940367841
1200.0534371004537 0.9999999935631483
1200.0546371544908 0.9999999930709108
1200.055837209728 0.9999999925598799
1200.0570372661653 0.9999999920299827
1200.0582373238024 0.9999999914813771
1200.0594373826398 0.9999999909137197
1200.060637442677 0.9999999903269623
1200.0618375039146 0.9999999897210954
1200.063037566352 0.9999999890959775
1200.0642376299897 0.9999999884515643
1200.0654376948273 0.9999999877876998
1200.066637760865 0.999999987104331
1200.0678378281027 0.9999999864012866
1200.0690378965403 0.9999999856786272
1200.0702379661784 0.9999999849360736
1200.0714380370162 0.9999999841735676
1200.0726381090542 0.9999999833910196
1200.0738381822923 0.9999999825883398
1200.0750382567305 0.999999981765284
1200.0762383323686 0.9999999809218766
1200.077438409207 0.9999999800578747
1200.0786384872454 0.9999999791732169
1200.0798385664839 0.9999999782677349
1200.0810386469223 0.9999999773413064
1200.082238728561 0.9999999763938392
1200.0834388113997 0.9999999754250376
1200.0846388954385 0.9999999744349389
1200.0858389806772 0.9999999734232045
1200.0870390671162 0.9999999723898928
1200.0882391547552 0.9999999713347224
1200.0894392435946 0.9999999702575125
1200.0906393336338 0.9999999691581182
1200.0918394248731 0.9999999680364317
1200.0930395173125 0.9999999668922183
1200.0942396109522 0.9999999657252218
1200.0954397057917 0.9999999645354474
1200.0966398018313 0.9999999633224833
1200.097839899071 0.9999999620863625
1200.099039997511 0.999999960826752
1200.100240097151 0.9999999595434719
1200.1014401979912 0.9999999582364799
1200.1026403000312 0.9999999569052769
1200.1038404032715 0.9999999555498762
1200.1050405077121 0.9999999541699773
1200.1062406133526 0.9999999527653219
1200.1074407201932 0.9999999513357521
1200.108640828234 0.9999999498810526
1200.1098409374747 0.9999999484008898
1200.1110410479157 0.9999999468951115
1200.1122411595568 0.9999999453634633
1200.113441272398 0.9999999438056675
1200.1146413864392 0.9999999422214727
1200.1158415016805 0.9999999406106204
1200.1170416181221 0.9999999389728038
1200.1182417357636 0.9999999373078684
1200.1194418546054 0.9999999356154873
1200.1206419746472 0.9999999338952903
1200.1218420958892 0.9999999321469805
1200.1230422183314 0.9999999303704507
1200.1242423419737 0.9999999285651774
1200.125442466816 0.9999999267310231
1200.1266425928584 0.9999999248676341
1200.1278427201012 0.9999999229746404
1200.1290428485438 0.9999999210516995
1200.1302429781867 0.9999999190985549
1200.1314431090298 0.9999999171148534
1200.1326432410729 0.9999999151001268
1200.133843374316 0.9999999130542883
1200.1350435087595 0.9999999109766639
1200.136243644403 0.9999999088671524
1200.1374437812467 0.9999999067252354
1200.1386439192906 0.9999999045504664
1200.1398440585344 0.9999999023426508
1200.1410441989785 0.999999900101195
1200.1422443406227 0.9999998978258496
1200.1434444834672 0.9999998955161852
1200.1446446275115 0.9999998931716593
1200.1458447727564 0.9999998907918995
1200.147044919201 0.9999998883765476
1200.1482450668461 0.999999885925059
1200.149445215691 0.9999998834370862
1200.1506453657364 0.9999998809120122
1200.1518455169817 0.9999998783493793
1200.1530456694272 0.9999998757488072
1200.154245823073 0.9999998731097783
1200.1554459779188 0.9999998704317421
1200.1566461339648 0.9999998677150592
1200.157846291211 0.9999998649595646
1200.1590464496574 0.9999998621634658
1200.1602466093038 0.999999859326248
1200.1614467701506 0.9999998564473465
1200.1626469321973 0.999999853526221
1200.1638470954442 0.99999985056231
1200.1650472598915 0.9999998475550856
1200.1662474255388 0.9999998445035828
1200.1674475923862 0.9999998414077017
1200.1686477604337 0.9999998382664038
1200.1698479296817 0.9999998350792069
1200.1710481001296 0.9999998318455573
1200.1722482717778 0.9999998285646187
1200.173448444626 0.9999998252358259
1200.1746486186746 0.9999998218582842
1200.1758487939233 0.9999998184315341
1200.177048970372 0.9999998149547787
1200.178249148021 0.9999998114272104
1200.17944932687 0.9999998078479975
1200.1806495069195 0.9999998042165872
1200.181849688169 0.9999998005320075
1200.1830498706188 0.9999997967934875
1200.184250054269 0.9999997930002709
1200.1854502391188 0.9999997891515857
1200.186650425169 0.9999997852463216
1200.1878506124197 0.9999997812838624
1200.1890508008703 0.9999997772631948
1200.1902509905212 0.9999997731833813
1200.1914511813723 0.9999997690435387
1200.1926513734234 0.9999997648427114
1200.1938515666748 0.9999997605798049
1200.1950517611263 0.9999997562540279
1200.1962519567783 0.9999997518643031
1200.1974521536301 0.9999997474095101
1200.1986523516825 0.9999997428885268
1200.1998525509348 0.9999997383005672
1200.2010527513876 0.9999997336442694
1200.2022529530402 0.999999728918626
1200.2034531558932 0.9999997241224317
1200.2046533599464 0.9999997192543866
1200.2058535651997 0.9999997143134147
1200.2070537716534 0.9999997092984172
1200.2082539793073 0.9999997042078235
1200.2094541881613 0.9999996990404564
1200.2106543982154 0.9999996937951389
1200.2118546094698 0.9999996884703515
1200.2130548219245 0.9999996830648747
1200.2142550355793 0.9999996775769515
1200.2154552504344 0.999999672005589
1200.2166554664896 0.9999996663491424
1200.2178556837453 0.9999996606059922
1200.219055902201 0.9999996547745869
1200.220256121857 0.9999996488534683
1200.221456342713 0.999999642840983
1200.2226565647693 0.9999996367355081
1200.223856788026 0.999999630535154
1200.225057012483 0.9999996242384542
1200.22625723814 0.999999617843557
1200.2274574649973 0.9999996113484356
1200.2286576930549 0.9999996047515873
1200.2298579223127 0.9999995980507888
1200.2310581527706 0.9999995912443284
1200.2322583844289 0.9999995838775617
1200.2334586172874 0.9999995758394792
1200.234658851346 0.9999995677084963
1200.235859086605 0.9999995594828995
1200.2370593230642 0.9999995511592621
1200.2382595607235 0.9999995427359522
1200.239459799583 0.9999995342102772
1200.240660039643 0.9999995255798251
1200.2418602809032 0.9999995168419147
1200.2430605233635 0.9999995079941959
1200.2442607670241 0.9999994990339447
1200.245461011885 0.9999994899581117
1200.2466612579462 0.9999994807642978
1200.2478615052075 0.999999471449445
1200.249061753669 0.9999994620107547
1200.2502620033308 0.9999994524451886
1200.251462254193 0.9999994427497535
1200.252662506255 0.9999994329210089
1200.253862759518 0.9999994229560468
1200.2550630139808 0.9999994128515429
1200.2562632696438 0.9999994026041971
1200.257463526507 0.9999993922104954
1200.2586637845707 0.9999993816667614
1200.2598640438346 0.9999993709692603
1200.2610643042988 0.9999993601148188
1200.262264565963 0.9999993490993226
1200.2634648288276 0.9999993379184593
1200.2646650928928 0.9999993265689693
1200.265865358158 0.9999993150463297
1200.2670656246232 0.9999993033465497
1200.268265892289 0.9999992914646876
1200.269466161155 0.9999992793969467
1200.2706664312213 0.9999992671386364
1200.2718667024878 0.9999992546848122
1200.2730669749546 0.9999992420309816
1200.2742672486218 0.9999992291721808
1200.275467523489 0.999999216102962
1200.2766677995567 0.9999992028185399
1200.2778680768245 0.9999991893135031
1200.2790683552926 0.9999991755819997
1200.280268634961 0.9999991616187307
1200.2814689158297 0.9999991474176676
1200.2826691978987 0.9999991329732048
1200.283869481168 0.9999991182785054
1200.2850697656377 0.9999991033280834
1200.2862700513074 0.999999088114842
1200.2874703381776 0.9999990726321906
1200.288670626248 0.999999056873436
1200.2898709155188 0.999999040831492
1200.2910712059897 0.9999990244988187
1200.2922714976612 0.9999990078679339
1200.2934717905325 0.9999989909316255
1200.2946720846046 0.99999897368109
1200.2958723798768 0.9999989561086047
1200.2970726763492 0.9999989382061015
1200.298272974022 0.999998919963798
1200.299473272895 0.9999989013738031
1200.3006735729684 0.9999988824263566
1200.3018738742421 0.999998863112069
1200.303074176716 0.9999988434210083
1200.3042744803904 0.999998823343343
1200.305474785265 0.9999988028681294
1200.3066750913397 0.9999987819850741
1200.307875398615 0.9999987606800218
1200.3090757070904 0.9999987389291864
1200.3102760167665 0.9999987167206565
1200.3114763276424 0.9999986940424033
1200.3126766397188 0.9999986708816372
1200.3138769529955 0.9999986472251378
1200.3150772674728 0.9999986230596216
1200.3162775831502 0.9999985983712003
1200.3174779000278 0.9999985731452783
1200.3186782181058 0.999998547367405
1200.3198785373843 0.9999985210217593
1200.3210788578629 0.9999984940927813
1200.3222791795417 0.9999984665642199
1200.323479502421 0.9999984384186354
1200.3246798265006 0.9999984096381905
1200.3258801517807 0.9999983802051171
1200.327080478261 0.9999983501009625
1200.3282808059414 0.9999983193055537
1200.3294811348223 0.9999982877992954
1200.3306814649036 0.9999982555606736
1200.3318817961851 0.9999982225686072
1200.3330821286672 0.9999981888004023
1200.3342824623494 0.9999981542330294
1200.335482797232 0.9999981188422111
1200.336683133315 0.999998082602776
1200.3378834705984 0.9999980454892174
1200.3390838090818 0.9999980074748913
1200.3402841487657 0.9999979685313719
1200.34148448965 0.9999979286301487
1200.3426848317345 0.9999978877412034
1200.3438851750195 0.9999978458337596
1200.3450855195047 0.9999978028748188
1200.3462858651903 0.9999977588312204
1200.3474862120763 0.9999977136677284
1200.3486865601626 0.9999976673485684
1200.3498869094492 0.9999976198355496
1200.3510872599363 0.999997571089319
1200.3522876116235 0.9999975210699767
1200.3534879645113 0.9999974697337031
1200.3546883185993 0.9999974170380841
1200.3558886738876 0.999997362935213
1200.3570890303765 0.9999973073789765
1200.3582893880655 0.9999972503173902
1200.3594897469552 0.9999971916995508
1200.3606901070452 0.9999971314713862
1200.3618904683356 0.999997069575522
1200.363090830826 0.9999970059534623
1200.3642911945171 0.9999969405421606
1200.3654915594084 0.9999968732780476
1200.3666919255 0.9999968040936835
1200.367892292792 0.9999967329184885
1200.3690926612844 0.9999966596789228
1200.3702930309773 0.9999965842961358
1200.3714934018706 0.999996506690728
1200.372693773964 0.9999964267773286
1200.373894147258 0.999996344466741
1200.3750945217523 0.999996259665946
1200.376294897447 0.9999961722778333
1200.377495274342 0.9999960821975019
1200.3786956524375 0.9999959893178808
1200.379896031733 0.9999958935248223
1200.3810964122295 0.9999957946982753
1200.382296793926 0.9999956927132331
1200.3834971768229 0.9999955874337753
1200.3846975609201 0.9999954787217998
1200.385897946218 0.9999953664267748
1200.387098332716 0.9999952503925068
1200.3882987204145 0.9999951304532996
1200.3894991093134 0.9999950064319385
1200.3906994994124 0.9999948781414837
1200.3918998907125 0.9999947453844326
1200.3931002832123 0.9999946079486682
1200.3943006769127 0.9999944656117028
1200.3955010718137 0.9999943181326327
1200.396701467915 0.9999941652580703
1200.3979018652165 0.9999940067156433
1200.3991022637185 0.999993842215439
1200.400302663421 0.9999936714446916
1200.4015030643238 0.9999934940716353
1200.402703466427 0.999993309738305
1200.4039038697306 0.9999931180599261
1200.4051042742346 0.9999929186260845
1200.406304679939 0.9999927108633219
1200.407505086844 0.9999924945350935
1200.4087054949491 0.9999922690104444
1200.4099059042549 0.9999920337316311
1200.411106314761 0.9999917880840248
1200.4123067264675 0.9999915314425529
1200.4135071393741 0.999991262986947
1200.4147075534815 0.999990982156342
1200.4159079687893 0.9999906880329631
1200.4171083852973 0.9999903797319348
1200.4183088030059 0.999990056295201
1200.419509221915 0.9999897166946607
1200.4207096420243 0.9999893598123845
1200.421910063334 0.99998898445383
1200.4231104858443 0.9999885893410819
1200.4243109095548 0.9999881731065682
1200.4255113344661 0.9999877342911231
1200.4267117605775 0.9999872713483553
1200.4279121878894 0.9999867826353346
1200.4291126164019 0.99998626641463
1200.4303130461146 0.9999857208381574
1200.431513477028 0.9999851439350167
1200.4327139091415 0.9999845335565535
1200.4339143424556 0.9999838872967542
1200.43511477697 0.9999832023832728
1200.436315212685 0.9999824754480887
1200.4375156496003 0.9999817022542867
1200.4387160877163 0.9999808770445048
1200.4399165270324 0.9999799926308341
1200.4411169675493 0.9999790386712706
1200.4423174092665 0.9999780005633402
1200.4435178521837 0.999976855315929
1200.444718296302 0.9999755552440924
1200.4459187416205 0.9999739754845789
1200.4471191881394 0.9999718257585056
1200.4483196358588 0.9999688641205461
1200.4495200847784 0.9999656244629543
1200.450720534899 0.999962867012717
1200.4519209862194 0.9999608619846706
1200.4531214387407 0.9999597354953331
1200.4543218924623 0.9999596067052553
1200.4555223473844 0.9999604954583335
1200.4567228035069 0.9999622933798888
1200.4579232608298 0.9999648785939473
1200.4591237193533 0.999968047440924
1200.4603241790771 0.999971162722949
1200.4615246400015 0.9999735097944711
1200.4627251021263 0.9999751968999735
1200.4639255654517 0.9999765497213366
1200.4651260299775 0.9999777273057291
1200.4663264957037 0.9999787892739255
1200.4675269626302 0.9999797626023119
1200.4687274307573 0.9999806631947069
1200.469927900085 0.999981502356846
1200.471128370613 0.9999822878351183
1200.4723288423418 0.9999830258137806
1200.4735293152708 0.9999837208182313
1200.4747297894003 0.9999843763982847
1200.4759302647303 0.9999849954561466
1200.477130741261 0.9999855804621448
1200.4783312189918 0.9999861336285517
1200.4795316979232 0.9999866569673411
1200.480732178055 0.999987152349623
1200.4819326593872 0.9999876215427094
1200.48313314192 0.9999880662092142
1200.4843336256533 0.9999884879195261
1200.4855341105872 0.9999888881570671
1200.4867345967214 0.9999892683082791
1200.487935084056 0.9999896296764756
1200.4891355725915 0.9999899734771347
1200.4903360623273 0.9999903008406057
1200.4915365532636 0.9999906128245362
1200.4927370454004 0.9999909103955639
1200.4939375387376 0.9999911944662326
1200.4951380332755 0.9999914659656008
1200.4963385290137 0.9999917254656795
1200.4975390259524 0.9999919738008013
1200.4987395240917 0.9999922116130476
1200.4999400234312 0.999992439526468
1200.5011405239716 0.999992658110748
1200.5023410257122 0.9999928680063321
1200.5035415286536 0.9999930694564085
1200.5047420327953 0.9999932630440853
1200.5059425381376 0.9999934491865307
1200.5071430446803 0.9999936282774022
1200.5083435524236 0.9999938006786714
1200.5095440613673 0.9999939667308124
1200.5107445715116 0.999994126749965
1200.5119450828565 0.9999942810305923
1200.5131455954017 0.9999944298516876
1200.5143461091475 0.9999945734687927
1200.5155466240938 0.9999947121263406
1200.5167471402408 0.9999948460521477
1200.5179476575881 0.9999949754606684
1200.5191481761358 0.9999951005527314
1200.5203486958844 0.9999952215176017
1200.5215492168331 0.9999953385337402
1200.5227497389826 0.999995451771395
1200.5239502623326 0.9999955613889131
1200.5251507868832 0.9999956675368286
1200.526351312634 0.9999957703581196
1200.5275518395856 0.999995869987049
1200.5287523677375 0.99999596655304
1200.5299528970902 0.9999960601768538
1200.5311534276432 0.9999961509734047
1200.532353959397 0.9999962390529925
1200.5335544923512 0.9999963245191753
1200.534755026506 0.999996407471518
1200.535955561861 0.9999964880050694
1200.537156098417 0.9999965662085635
1200.5383566361734 0.9999966421685506
1200.53955717513 0.9999967159673143
1200.5407577152876 0.999996787682802
1200.5419582566456 0.9999968573887519
1200.5431587992039 0.999996925158094
1200.544359342963 0.9999969910577626
1200.5455598879225 0.999997055153682
1200.5467604340827 0.9999971175080269
1200.5479609814433 0.9999971781805366
1200.5491615300048 0.999997237229159
1200.5503620797663 0.9999972947080591
1200.5515626307288 0.9999973506698332
1200.5527631828916 0.9999974051656688
1200.553963736255 0.9999974582437062
1200.5551642908188 0.9999975099502131
1200.5563648465834 0.9999975603296536
1200.5575654035486 0.9999976094254144
1200.5587659617142 0.999997657278889
1200.5599665210802 0.999997703929347
1200.561167081647 0.999997749414194
1200.5623676434145 0.9999977937709774
1200.5635682063823 0.9999978370348098
1200.5647687705507 0.9999978792392864
1200.5659693359198 0.9999979204167155
1200.5671699024892 0.9999979605995463
1200.5683704702594 0.99999799981752
1200.5695710392304 0.999998038099895
1200.5707716094014 0.9999980754740626
1200.5719721807734 0.9999981119680239
1200.5731727533457 0.9999981476078167
1200.5743733271188 0.9999981824177684
1200.5755739020922 0.9999982164228268
1200.5767744782663 0.9999982496467286
1200.577975055641 0.9999982821113043
1200.5791756342164 0.9999983138391036
1200.5803762139922 0.9999983448504239
1200.5815767949687 0.9999983751667048
1200.5827773771457 0.9999984048062875
1200.5839779605233 0.9999984337891076
1200.5851785451016 0.9999984621331163
1200.5863791308805 0.9999984898560375
1200.5875797178599 0.9999985169748471
1200.5887803060398 0.9999985435072931
1200.5899808954202 0.9999985694676559
1200.5911814860015 0.999998594872345
1200.5923820777832 0.9999986197368462
1200.5935826707655 0.9999986440741769
1200.5947832649483 0.9999986678999055
1200.595983860332 0.9999986912267596
1200.597184456916 0.999998714068204
1200.5983850547007 0.9999987364367053
1200.599585653686 0.9999987583449391
1200.600786253872 0.9999987798043682
1200.6019868552585 0.9999988008272007
1200.6031874578455 0.9999988214245411
1200.6043880616332 0.9999988416062598
1200.6055886666215 0.9999988613840745
1200.6067892728104 0.9999988807677381
1200.6079898802 0.9999988997673984
1200.60919048879 0.9999989183919977
1200.6103910985807 0.9999989366514126
1200.6115917095722 0.9999989545546859
1200.6127923217643 0.9999989721104017
1200.6139929351568 0.9999989893267422
1200.61519354975 0.9999990062125492
1200.6163941655439 0.9999990227758155
1200.6175947825384 0.9999990390233546
1200.6187954007335 0.9999990549637156
1200.6199960201293 0.9999990706039179
1200.6211966407254 0.9999990859509954
1200.6223972625226 0.9999991010117787
1200.62359788552 0.9999991157933243
1200.6247985097182 0.9999991303019659
1200.625999135117 0.9999991445446329
1200.6271997617164 0.9999991585266108
1200.6284003895164 0.9999991722542159
1200.6296010185172 0.9999991857329995
1200.6308016487183 0.9999991989688233
1200.6320022801203 0.9999992119671467
1200.6332029127227 0.9999992247332994
