Atmospheric Species: CO2
Metallicity: 1
C/O_Ratio: 0.5
Wavelength[nm] Flux_variation
1599.9991319407557 0.9999999879109472
1600.0007319406875 0.9999999759221686
1600.0023319422194 0.9999999556091677
1600.003931945351 0.9999999292479875
1600.005531950083 0.9999999139275733
1600.0071319564147 0.9999999197940392
1600.0087319643467 0.9999999349608133
1600.0103319738785 0.9999999487013357
1600.0119319850105 0.9999999630481856
1600.0135319977423 0.9999999780764329
1600.0151320120742 0.9999999892460377
1600.0167320280061 0.9999999949459266
1600.018332045538 0.9999999971655793
1600.01993206467 0.9999999982987431
1600.021532085402 0.9999999993250132
1600.023132107734 1.0
1600.024732131666 0.9999999999936715
1600.0263321571979 0.9999999994559442
1600.02793218433 0.9999999986373741
1600.0295322130619 0.9999999975117265
1600.0311322433943 0.9999999962153893
1600.0327322753265 0.9999999953223815
1600.034332308859 0.9999999950634786
1600.0359323439911 0.9999999950811616
1600.0375323807234 0.9999999952138734
1600.039132419056 0.9999999955367297
1600.0407324589883 0.9999999958829338
1600.0423325005206 0.9999999959607759
1600.043932543653 0.9999999956415484
1600.0455325883854 0.9999999949947999
1600.047132634718 0.9999999941936087
1600.0487326826508 0.9999999933576789
1600.0503327321835 0.9999999924578741
1600.0519327833163 0.9999999913472352
1600.0535328360488 0.9999999898692709
1600.0551328903816 0.9999999880553846
1600.0567329463145 0.9999999862979679
1600.0583330038473 0.9999999850486492
1600.0599330629805 0.9999999841287088
1600.0615331237134 0.9999999827383945
1600.0631331860466 0.9999999801003253
1600.0647332499796 0.9999999757654151
1600.066333315513 0.9999999701944392
1600.0679333826463 0.9999999653708647
1600.0695334513798 0.9999999629129173
1600.0711335217131 0.9999999614650382
1600.0727335936465 0.9999999580983187
1600.0743336671803 0.9999999510907854
1600.075933742314 0.9999999391842586
1600.0775338190476 0.9999999168647532
1600.0791338973813 0.9999998650410523
1600.0807339773153 0.9999997463593882
1600.0823340588493 0.9999995474784916
1600.0839341419833 0.9999993699476499
1600.0855342267173 0.9999993785533121
1600.0871343130518 0.9999995616413234
1600.0887344009861 0.9999997521816166
1600.0903344905205 0.9999998632469126
1600.0919345816546 0.9999999126893523
1600.0935346743893 0.9999999345035595
1600.095134768724 0.9999999459040311
1600.0967348646586 0.9999999530599393
1600.0983349621936 0.9999999580200735
1600.0999350613286 0.9999999614932035
1600.1015351620636 0.9999999638630137
1600.1031352643988 0.9999999654412839
1600.104735368334 0.9999999664518623
1600.1063354738692 0.9999999669588644
1600.1079355810048 0.9999999668657269
1600.1095356897404 0.9999999662105332
1600.111135800076 0.9999999655583993
1600.1127359120119 0.9999999655541691
1600.1143360255478 0.9999999659779887
1600.115936140684 0.9999999660424058
1600.11753625742 0.9999999653194902
1600.1191363757562 0.999999963605956
1600.1207364956927 0.9999999607165161
1600.1223366172292 0.9999999575346293
1600.123936740366 0.9999999562087194
1600.1255368651025 0.9999999575833458
1600.1271369914393 0.9999999600294255
1600.1287371193764 0.9999999619077563
1600.1303372489135 0.9999999629467233
1600.1319373800509 0.9999999632657289
1600.1335375127883 0.9999999628386735
1600.135137647126 0.9999999618651878
1600.1367377830636 0.999999960907303
1600.138337920601 0.9999999603723367
1600.139938059739 0.9999999601618532
1600.141538200477 0.9999999599883687
1600.1431383428153 0.9999999596146045
1600.1447384867536 0.9999999587583857
1600.146338632292 0.9999999571526196
1600.1479387794307 0.9999999549112573
1600.1495389281695 0.9999999528166885
1600.1511390785083 0.9999999517631469
1600.1527392304474 0.9999999514690319
1600.1543393839866 0.9999999502172099
1600.155939539126 0.999999946444365
1600.1575396958654 0.9999999408836738
1600.159139854205 0.9999999370484375
1600.1607400141452 0.9999999377138866
1600.1623401756851 0.999999941028101
1600.1639403388253 0.9999999431153784
1600.1655405035656 0.9999999431036448
1600.1671406699063 0.9999999427753162
1600.1687408378468 0.9999999430979783
1600.1703410073876 0.9999999434033944
1600.1719411785289 0.9999999431966806
1600.17354135127 0.99999994304702
1600.1751415256115 0.9999999437136657
1600.1767417015528 0.9999999451660996
1600.1783418790947 0.9999999466209321
1600.1799420582367 0.9999999474137254
1600.1815422389786 0.9999999474816874
1600.183142421321 0.9999999470782632
1600.1847426052634 0.9999999464578379
1600.186342790806 0.9999999457624418
1600.187942977949 0.9999999450081268
1600.1895431666917 0.9999999442370832
1600.191143357035 0.9999999436152756
1600.1927435489783 0.9999999432126135
1600.1943437425218 0.9999999428389013
1600.1959439376658 0.9999999422879643
1600.1975441344098 0.9999999415691492
1600.1991443327538 0.9999999406887592
1600.200744532698 0.9999999393441644
1600.2023447342428 0.9999999371138222
1600.2039449373876 0.9999999340733965
1600.2055451421327 0.9999999309014195
1600.2071453484778 0.99999992816323
1600.2087455564233 0.9999999263373538
1600.2103457659687 0.9999999261748873
1600.2119459771145 0.9999999275892493
1600.2135461898606 0.9999999293061423
1600.215146404207 0.9999999303463663
1600.2167466201533 0.9999999305260526
1600.2183468377 0.9999999296555714
1600.2199470568469 0.9999999272388467
1600.221547277594 0.9999999228381727
1600.2231474999412 0.999999916592416
1600.2247477238886 0.9999999104017611
1600.2263479494366 0.9999999079638611
1600.2279481765845 0.9999999106428152
1600.229548405333 0.999999915376963
1600.2311486356812 0.9999999190550262
1600.2327488676299 0.9999999212753852
1600.2343491011789 0.99999992255534
1600.235949336328 0.9999999229770128
1600.2375495730776 0.9999999224785507
1600.2391498114273 0.9999999207117448
1600.240750051377 0.9999999167223916
1600.242350292927 0.9999999107398674
1600.2439505360774 0.9999999062143026
1600.245550780828 0.9999999066044987
1600.247151027179 0.9999999105547996
1600.2487512751302 0.9999999144328918
1600.2503515246815 0.9999999169597907
1600.251951775833 0.9999999185361337
1600.2535520285849 0.9999999193510827
1600.255152282937 0.9999999193863068
1600.2567525388893 0.9999999188009762
1600.2583527964418 0.9999999179605863
1600.2599530555947 0.9999999172168135
1600.2615533163478 0.9999999164830936
1600.2631535787013 0.999999915237415
1600.264753842655 0.9999999130535966
1600.266354108209 0.9999999101096956
1600.2679543753634 0.9999999076123202
1600.2695546441178 0.9999999070563126
1600.2711549144724 0.9999999082905954
1600.272755186427 0.9999999096497909
1600.2743554599824 0.9999999100181766
1600.2759557351378 0.9999999093483545
1600.2775560118935 0.9999999081739372
1600.2791562902496 0.9999999074508721
1600.2807565702058 0.9999999077345312
1600.2823568517624 0.9999999085034641
1600.2839571349193 0.999999908940033
1600.2855574196763 0.9999999087398628
1600.287157706034 0.9999999079825551
1600.2887579939916 0.9999999068897525
1600.2903582835495 0.9999999058198592
1600.2919585747077 0.9999999051042466
1600.2935588674663 0.9999999047215857
1600.295159161825 0.9999999043189504
1600.2967594577842 0.9999999036002964
1600.2983597553439 0.9999999024535984
1600.2999600545038 0.99999990073019
1600.3015603552642 0.9999998979526996
1600.3031606576246 0.9999998929544907
1600.3047609615853 0.9999998838857186
1600.3063612671465 0.9999998697859106
1600.307961574308 0.9999998538867908
1600.3095618830696 0.9999998449165552
1600.3111621934315 0.9999998499352317
1600.3127625053937 0.9999998645769101
1600.3143628189562 0.9999998780360742
1600.315963134119 0.9999998854234491
1600.3175634508825 0.9999998883482132
1600.3191637692462 0.9999998891405996
1600.3207640892101 0.9999998889588337
1600.3223644107743 0.9999998884583529
1600.3239647339387 0.999999888137243
1600.3255650587034 0.9999998882843687
1600.3271653850686 0.9999998887949588
1600.3287657130343 0.9999998892122052
1600.3303660426002 0.999999889218255
1600.3319663737664 0.999999888829653
1600.3335667065328 0.9999998881335429
1600.3351670408995 0.999999887174208
1600.3367673768666 0.9999998860174644
1600.3383677144343 0.9999998847250455
1600.339968053602 0.999999883298332
1600.3415683943701 0.9999998816760477
1600.3431687367386 0.9999998797092379
1600.3447690807075 0.9999998771461419
1600.3463694262766 0.9999998737978169
1600.3479697734463 0.9999998698246988
1600.349570122216 0.9999998656223166
1600.3511704725863 0.9999998611261224
1600.352770824557 0.999999855421113
1600.3543711781278 0.999999846929416
1600.355971533299 0.9999998325396992
1600.3575718900709 0.9999998029023314
1600.3591722484427 0.9999997326270297
1600.3607726084151 0.9999995845440997
1600.362372969988 0.9999993749044027
1600.363973333161 0.9999992467317396
1600.3655736979347 0.9999993306576727
1600.3671740643083 0.9999995372043475
1600.3687744322826 0.9999997033160396
1600.370374801857 0.999999786093237
1600.3719751730318 0.9999998188491187
1600.3735755458074 0.9999998313170162
1600.375175920183 0.9999998359916333
1600.3767762961588 0.9999998384899736
1600.3783766737354 0.9999998425358259
1600.3799770529122 0.9999998487708125
1600.3815774336892 0.9999998548029285
1600.3831778160668 0.9999998588043232
1600.3847782000448 0.9999998611536821
1600.3863785856233 0.9999998627841294
1600.3879789728019 0.9999998639773955
1600.389579361581 0.9999998646330741
1600.3911797519606 0.9999998645867862
1600.3927801439404 0.9999998636702441
1600.3943805375209 0.9999998620494843
1600.3959809327016 0.9999998605330039
1600.3975813294826 0.9999998599420343
1600.399181727864 0.9999998602822044
1600.4007821278458 0.9999998610033811
1600.4023825294282 0.9999998614722987
1600.403982932611 0.999999861248996
1600.405583337394 0.999999860615611
1600.4071837437775 0.9999998603806932
1600.4087841517612 0.9999998607552288
1600.4103845613456 0.9999998611359449
1600.4119849725303 0.9999998611040721
1600.4135853853154 0.9999998608078366
1600.4151857997008 0.9999998604080007
1600.4167862156867 0.9999998597047043
1600.418386633273 0.999999858196799
1600.4199870524599 0.9999998553430575
1600.421587473247 0.9999998514757275
1600.4231878956346 0.9999998486706765
1600.4247883196226 0.9999998489603749
1600.4263887452112 0.9999998515154352
1600.4279891723997 0.9999998538372038
1600.4295896011893 0.9999998548222576
1600.431190031579 0.9999998549527871
1600.4327904635693 0.9999998548806927
1600.43439089716 0.9999998547842431
1600.435991332351 0.9999998545152466
1600.4375917691425 0.9999998539121637
1600.4391922075345 0.9999998529624508
1600.4407926475267 0.9999998518093418
1600.4423930891194 0.9999998506995599
1600.4439935323126 0.9999998498762043
1600.4455939771065 0.9999998493267248
1600.4471944235006 0.9999998486226713
1600.448794871495 0.9999998471535704
1600.4503953210901 0.9999998446361859
1600.4519957722855 0.9999998417540363
1600.4535962250816 0.9999998400532338
1600.4551966794777 0.9999998403237419
1600.4567971354745 0.9999998415967785
1600.458397593072 0.9999998424993112
1600.4599980522696 0.9999998427186161
1600.4615985130679 0.9999998426703675
1600.4631989754666 0.9999998425432688
1600.4647994394659 0.9999998422840205
1600.4663999050654 0.9999998419909413
1600.4680003722656 0.9999998417145828
1600.469600841066 0.9999998412017667
1600.471201311467 0.9999998400407156
1600.4728017834686 0.9999998379346915
1600.4744022570706 0.999999835166022
1600.476002732273 0.9999998329494282
1600.4776032090758 0.9999998324414835
1600.4792036874794 0.9999998331623676
1600.480804167483 0.9999998335986192
1600.4824046490874 0.9999998331186976
1600.4840051322924 0.9999998323014279
1600.4856056170975 0.9999998319001758
1600.4872061035032 0.9999998320240441
1600.4888065915095 0.9999998322128721
1600.4904070811165 0.9999998318827086
1600.4920075723237 0.9999998306171357
1600.4936080651314 0.9999998287053353
1600.4952085595396 0.9999998273128045
1600.4968090555485 0.9999998273311851
1600.498409553158 0.9999998283997155
1600.5000100523673 0.9999998295147338
1600.5016105531777 0.9999998300473585
1600.5032110555883 0.9999998299842008
1600.5048115595996 0.9999998295547784
1600.5064120652114 0.9999998288876842
1600.5080125724237 0.9999998280585873
1600.5096130812365 0.9999998272520763
1600.5112135916497 0.9999998265998985
1600.5128141036635 0.9999998259667466
1600.514414617278 0.99999982515487
1600.5160151324926 0.9999998241621932
1600.517615649308 0.9999998230345298
1600.519216167724 0.9999998214195798
1600.52081668774 0.9999998183472983
1600.522417209357 0.999999813130086
1600.5240177325743 0.9999998074092538
1600.5256182573921 0.9999998049466671
1600.5272187838107 0.9999998069801952
1600.5288193118297 0.9999998103858899
1600.5304198414494 0.9999998124107888
1600.5320203726694 0.9999998132733802
1600.5336209054901 0.9999998138209983
1600.535221439911 0.9999998139933189
1600.5368219759328 0.9999998133372154
1600.538422513555 0.9999998115003689
1600.5400230527775 0.999999808514707
1600.5416235936007 0.9999998049901827
1600.5432241360245 0.9999998018748423
1600.5448246800486 0.9999997998069696
1600.5464252256736 0.999999798899086
1600.5480257728989 0.9999997996212059
1600.5496263217249 0.9999998023362127
1600.5512268721513 0.9999998057443908
1600.5528274241785 0.9999998081520384
1600.5544279778062 0.9999998092464677
1600.5560285330344 0.9999998095161624
1600.557629089863 0.9999998093490837
1600.5592296482923 0.9999998089390889
1600.5608302083222 0.9999998084090583
1600.5624307699525 0.9999998078140673
1600.5640313331835 0.9999998070854234
1600.565631898015 0.999999806030414
1600.567232464447 0.9999998042572127
1600.5688330324797 0.9999998010221091
1600.5704336021129 0.9999997959031767
1600.5720341733465 0.9999997906636914
1600.5736347461807 0.9999997888901504
1600.5752353206158 0.999999791644996
1600.5768358966516 0.9999997959712773
1600.5784364742876 0.9999997989187766
1600.5800370535244 0.9999998000399486
1600.5816376343616 0.9999998001219806
1600.5832382167996 0.9999997997536976
1600.584838800838 0.9999997991043901
1600.586439386477 0.9999997981577794
1600.5880399737164 0.9999997968540475
1600.5896405625567 0.9999997950844414
1600.5912411529978 0.9999997928504201
1600.592841745039 0.999999790724427
1600.5944423386811 0.9999997895300341
1600.5960429339236 0.9999997889180712
1600.5976435307668 0.9999997871980364
1600.5992441292105 0.9999997834379557
1600.600844729255 0.9999997794244628
1600.6024453309 0.9999997782233582
1600.6040459341457 0.9999997800426622
1600.6056465389918 0.9999997818458283
1600.6072471454384 0.9999997808592554
1600.6088477534856 0.9999997755401295
1600.6104483631339 0.9999997653391978
1600.6120489743823 0.9999997538604807
1600.6136495872315 0.9999997493862612
1600.6152502016814 0.9999997554435471
1600.6168508177318 0.999999765391807
1600.6184514353831 0.9999997717463908
1600.6200520546347 0.9999997735187434
1600.621652675487 0.9999997733695237
1600.62325329794 0.9999997734590088
1600.6248539219935 0.9999997740920802
1600.6264545476477 0.9999997743344557
1600.6280551749023 0.9999997733122853
1600.629655803758 0.9999997708933765
1600.631256434214 0.9999997677859239
1600.6328570662706 0.9999997650766124
1600.634457699928 0.9999997629727765
1600.636058335186 0.9999997603756136
1600.6376589720444 0.9999997558756379
1600.6392596105036 0.9999997484131328
1600.6408602505635 0.9999997375515153
1600.642460892224 0.9999997235172153
1600.644061535485 0.9999997035980531
1600.645662180347 0.9999996623177957
1600.6472628268093 0.9999995638148675
1600.6488634748723 0.9999993818280016
1600.6504641245363 0.9999991895790673
1600.6520647758005 0.9999991572164121
1600.6536654286656 0.9999993197090248
1600.6552660831312 0.999999518548293
1600.6568667391975 0.9999996415697131
1600.6584673968646 0.9999996956574997
1600.6600680561323 0.9999997177117069
1600.6616687170006 0.9999997273207167
1600.6632693794695 0.9999997291053271
1600.6648700435392 0.9999997209477405
1600.6664707092095 0.9999997012304352
1600.6680713764806 0.9999996793604035
1600.6696720453522 0.9999996740747371
1600.6712727158244 0.9999996901855701
1600.6728733878974 0.9999997120313444
1600.6744740615711 0.9999997262665312
1600.6760747368455 0.999999733187574
1600.6776754137206 0.9999997379797143
1600.6792760921962 0.99999974220591
1600.6808767722728 0.9999997437876286
1600.6824774539498 0.9999997407555604
1600.6840781372273 0.9999997336995855
1600.6856788221057 0.9999997270864883
1600.6872795085849 0.9999997260959476
1600.6888801966645 0.9999997300907852
1600.6904808863449 0.9999997346946657
1600.6920815776261 0.9999997388863552
1600.693682270508 0.9999997435236516
1600.6952829649904 0.9999997473053165
1600.6968836610738 0.9999997485059989
1600.6984843587577 0.9999997473646846
1600.7000850580425 0.9999997454672793
1600.7016857589279 0.9999997441399684
1600.7032864614139 0.9999997439242746
1600.7048871655006 0.9999997447765556
1600.7064878711883 0.9999997458330215
1600.7080885784762 0.9999997461276131
1600.709689287365 0.9999997460123924
1600.7112899978547 0.9999997465372805
1600.712890709945 0.9999997476758136
1600.714491423636 0.9999997483798962
1600.7160921389277 0.9999997478213191
1600.7176928558201 0.9999997458455113
1600.7192935743133 0.999999743109671
1600.7208942944071 0.9999997410172013
1600.7224950161017 0.9999997404887969
1600.724095739397 0.9999997409841942
1600.725696464293 0.999999741396359
1600.7272971907898 0.9999997413715785
1600.7288979188872 0.9999997412361967
1600.7304986485856 0.9999997410871352
1600.7320993798846 0.9999997408884642
1600.7337001127844 0.9999997410391301
1600.7353008472849 0.9999997417576372
1600.736901583386 0.9999997425320795
1600.738502321088 0.9999997427996529
1600.7401030603905 0.9999997425125516
1600.741703801294 0.9999997419900715
1600.743304543798 0.9999997415759226
1600.744905287903 0.9999997413054491
1600.7465060336087 0.9999997409760317
1600.748106780915 0.9999997405336949
1600.749707529822 0.9999997400681604
1600.7513082803298 0.9999997395842879
1600.7529090324385 0.9999997390139276
1600.7545097861478 0.9999997383333061
1600.756110541458 0.9999997375202925
1600.7577112983688 0.9999997364287677
1600.7593120568806 0.9999997348659317
1600.760912816993 0.9999997329864997
1600.7625135787061 0.9999997314997889
1600.76411434202 0.9999997310454144
1600.7657151069347 0.9999997314825957
1600.7673158734501 0.999999732120395
1600.7689166415662 0.9999997323550484
1600.7705174112832 0.9999997319617254
1600.772118182601 0.9999997310015638
1600.7737189555196 0.9999997296330859
1600.7753197300387 0.9999997281575256
1600.7769205061588 0.9999997271077431
1600.7785212838796 0.9999997268285302
1600.7801220632014 0.9999997270366803
1600.7817228441238 0.9999997272146723
1600.7833236266472 0.9999997270837563
1600.7849244107708 0.9999997264563348
1600.7865251964956 0.9999997250929418
1600.7881259838211 0.9999997230284351
1600.7897267727474 0.9999997210071842
1600.7913275632745 0.9999997200705568
1600.7929283554026 0.9999997203974407
1600.7945291491314 0.9999997211483351
1600.7961299444607 0.999999721515719
1600.797730741391 0.9999997213318191
1600.799331539922 0.9999997207198362
1600.8009323400538 0.9999997196028718
1600.8025331417864 0.9999997177627122
1600.80413394512 0.9999997152279713
1600.8057347500542 0.9999997123735633
1600.8073355565894 0.9999997099300806
1600.8089363647252 0.9999997090374114
1600.810537174462 0.9999997102494474
1600.8121379857996 0.9999997124616566
1600.813738798738 0.9999997141227985
1600.8153396132773 0.9999997148185222
1600.8169404294174 0.9999997149326613
1600.8185412471582 0.9999997147781476
1600.8201420665 0.9999997144334329
1600.8217428874425 0.9999997139215873
1600.823343709986 0.9999997133056291
1600.82494453413 0.9999997126647086
1600.8265453598751 0.9999997125644959
1600.828146187221 0.9999997127706611
1600.8297470161676 0.9999997132924294
1600.831347846715 0.999999713913751
1600.8329486788634 0.99999971330065
1600.8345495126125 0.9999997121877165
1600.8361503479625 0.9999997109813908
1600.8377511849133 0.9999997099631376
1600.839352023465 0.9999997092587415
1600.8409528636175 0.999999708790599
1600.8425537053706 0.9999997084609352
1600.8441545487249 0.9999997084823677
