Atmospheric Species: CH4_CO_CO2_H2O_NH3
Metallicity: 1000
C/O_Ratio: 0.5
Wavelength[nm] Flux_variation
2199.999397930935 0.9999799877140959
2200.001597931433 0.9999813240587545
2200.003797934131 0.9999826052064364
2200.0059979390285 0.9999840954476108
2200.0081979461265 0.9999862358701642
2200.010397955424 0.9999892746295244
2200.0125979669224 0.9999928688307286
2200.01479798062 0.9999953174852896
2200.016997996518 0.9999949267784166
2200.019198014616 0.9999929656697224
2200.021398034914 0.9999906321061558
2200.023598057412 0.9999880752218359
2200.0257980821098 0.9999856485636143
2200.027998109008 0.9999838907473393
2200.030198138106 0.9999830478843866
2200.032398169404 0.9999831655910627
2200.034598202902 0.9999842505653794
2200.0367982386 0.9999862718264481
2200.0389982764987 0.9999889257569803
2200.041198316597 0.9999912208034806
2200.043398358895 0.9999923583771668
2200.0455984033933 0.9999930575255455
2200.0477984500917 0.9999940367547898
2200.04999849899 0.9999952728755347
2200.052198550088 0.9999960461292319
2200.0543986033867 0.9999954233590281
2200.0565986588854 0.999993781204992
2200.058798716584 0.9999920980724806
2200.0609987764824 0.9999908282598887
2200.0631988385812 0.9999901418395052
2200.06539890288 0.9999901134234457
2200.0675989693787 0.9999907124823229
2200.0697990380777 0.9999917048994159
2200.071999108977 0.9999922472327457
2200.074199182076 0.9999901819182314
2200.076399257375 0.9999858070430386
2200.078599334874 0.9999819114571762
2200.0807994145734 0.9999792013732449
2200.082999496473 0.9999775525871495
2200.0851995805724 0.9999768141803949
2200.087399666872 0.9999769155938306
2200.0895997553716 0.9999778616805637
2200.0917998460714 0.9999797265260043
2200.093999938971 0.9999826286637797
2200.096200034071 0.9999865713827089
2200.098400131371 0.9999909784840179
2200.100600230871 0.9999944350270463
2200.1028003325714 0.9999958293861573
2200.1050004364715 0.9999955702367921
2200.107200542572 0.9999946612545946
2200.1094006508724 0.9999937871083154
2200.111600761373 0.9999932993872565
2200.113800874074 0.9999932369534064
2200.116000988975 0.9999932528462051
2200.118201106076 0.9999927916776965
2200.120401225377 0.9999918899536586
2200.1226013468786 0.9999911916851647
2200.1248014705798 0.9999911542313769
2200.1270015964815 0.9999918403115098
2200.129201724583 0.9999928930288412
2200.1314018548846 0.9999936375338512
2200.1336019873866 0.999993720070748
2200.1358021220885 0.9999931442455584
2200.1380022589906 0.9999920054862842
2200.1402023980927 0.9999908450579285
2200.1424025393953 0.9999902403200858
2200.1446026828976 0.9999903260985891
2200.1468028286004 0.9999902148647963
2200.149002976503 0.9999879389823647
2200.151203126606 0.9999846485435516
2200.1534032789095 0.9999821260198323
2200.1556034334126 0.9999806318934881
2200.157803590116 0.999980094269696
2200.16000374902 0.9999804730488965
2200.162203910123 0.9999817992038612
2200.1644040734272 0.9999841419540743
2200.1666042389315 0.9999873854592997
2200.168804406636 0.9999904837275608
2200.17100457654 0.9999917956906009
2200.173204748645 0.9999919235380768
2200.1754049229494 0.9999918309207719
2200.1776050994545 0.9999908232886688
2200.179805278159 0.9999882093855024
2200.182005459065 0.9999854551622641
2200.18420564217 0.9999834257145641
2200.186405827476 0.9999817949985568
2200.188606014982 0.9999798426388831
2200.1908062046878 0.9999777172218138
2200.193006396594 0.9999760937895068
2200.1952065907003 0.9999752204772815
2200.197406787007 0.9999751201883877
2200.1996069855136 0.9999758056012267
2200.201807186221 0.9999773406664927
2200.204007389128 0.9999798703396419
2200.2062075942354 0.9999835651832057
2200.208407801543 0.9999877980443231
2200.2106080110507 0.999989677203098
2200.2128082227587 0.999989450488529
2200.215008436667 0.9999886550792956
2200.2172086527758 0.9999872153045716
2200.2194088710844 0.9999858103761737
2200.221609091593 0.9999851624716797
2200.2238093143023 0.9999855074733862
2200.2260095392116 0.9999868685963896
2200.228209766321 0.9999889605195148
2200.230409995631 0.9999905672273858
2200.232610227141 0.9999907145321938
2200.2348104608513 0.9999905939116963
2200.237010696762 0.9999911513035671
2200.2392109348725 0.9999925338163212
2200.2414111751837 0.9999944570506664
2200.243611417695 0.9999962290969883
2200.245811662406 0.9999971213473409
2200.248011909318 0.9999967848360585
2200.25021215843 0.9999951155869428
2200.2524124097417 0.9999926666620574
2200.254612663254 0.9999904326985487
2200.256812918967 0.9999890020018298
2200.2590131768798 0.9999885413062831
2200.2612134369933 0.9999890453034824
2200.2634136993065 0.9999904222221813
2200.26561396382 0.9999924193334702
2200.2678142305344 0.9999944677414161
2200.2700144994487 0.9999955162519438
2200.272214770563 0.9999932978487087
2200.274415043878 0.9999881775676267
2200.2766153193934 0.9999835641803668
2200.2788155971084 0.9999803006335655
2200.281015877024 0.9999782213173576
2200.28321615914 0.9999771188348688
2200.2854164434566 0.9999768783319943
2200.287616729973 0.9999774629524762
2200.2898170186895 0.999978863723608
2200.2920173096068 0.9999809132145072
2200.294217602724 0.9999828800753904
2200.296417898042 0.9999841817049764
2200.29861819556 0.9999855460712764
2200.3008184952782 0.9999874076004274
2200.3030187971967 0.9999877978170003
2200.3052191013153 0.9999850342574095
2200.307419407635 0.9999822955201956
2200.309619716154 0.9999805980038499
2200.3118200268736 0.9999798856245109
2200.314020339794 0.9999800166366013
2200.3162206549146 0.999980653216822
2200.3184209722353 0.9999809703360291
2200.320621291756 0.9999806425240721
2200.3228216134776 0.9999804933448845
2200.3250219373995 0.9999810940892295
2200.3272222635214 0.9999826531696229
2200.3294225918435 0.9999852983132431
2200.3316229223665 0.999988930318018
2200.3338232550896 0.9999920634347222
2200.3360235900127 0.999992209405536
2200.3382239271364 0.999991078230436
2200.34042426646 0.9999904404279139
2200.342624607985 0.999990621599385
2200.3448249517096 0.9999915587798128
2200.3470252976344 0.9999930325589301
2200.34922564576 0.9999945177927153
2200.3514259960857 0.9999950573617901
2200.3536263486117 0.9999943418470764
2200.355826703338 0.999993162984752
2200.3580270602647 0.9999917981020967
2200.3602274193922 0.9999893456699682
2200.36242778072 0.9999855555700669
2200.3646281442475 0.9999819923422567
2200.3668285099757 0.9999794399833583
2200.3690288779044 0.99997790141535
2200.371229248033 0.9999772679658213
2200.3734296203625 0.9999774831783892
2200.3756299948923 0.9999785443525198
2200.377830371622 0.999980412716687
2200.3800307505526 0.9999826348804185
2200.3822311316835 0.9999842021511801
2200.3844315150145 0.9999852478423765
2200.386631900546 0.9999865793348339
2200.388832288278 0.9999880717840983
2200.3910326782106 0.9999891374943062
2200.3932330703433 0.9999899932133942
2200.3954334646764 0.999991086592431
2200.39763386121 0.9999915432250976
2200.399834259944 0.9999898900321371
2200.402034660878 0.9999875717534078
2200.404235064013 0.9999860173542345
2200.4064354693483 0.9999854707877804
2200.4086358768836 0.9999858517800705
2200.4108362866195 0.9999869187346395
2200.413036698556 0.999988242482023
2200.415237112693 0.999989551337845
2200.4174375290304 0.9999908324467596
2200.419637947568 0.9999906434586203
2200.421838368306 0.9999871583330958
2200.4240387912446 0.9999832050632912
2200.4262392163832 0.9999803014903573
2200.428439643723 0.9999784778262152
2200.430640073262 0.9999775961993983
2200.432840505003 0.999977574411868
2200.435040938943 0.9999783929727349
2200.4372413750843 0.9999800084688054
2200.4394418134257 0.9999816552597101
2200.4416422539675 0.9999810315954283
2200.4438426967104 0.9999792077133536
2200.4460431416533 0.9999779879655769
2200.4482435887962 0.9999776184587088
2200.45044403814 0.9999781045288743
2200.452644489684 0.9999794938913341
2200.4548449434287 0.999981903171686
2200.457045399374 0.9999854611018337
2200.4592458575194 0.9999900192602087
2200.4614463178655 0.9999946411894508
2200.463646780412 0.9999979309581934
2200.465847245159 0.9999994858031565
2200.468047712106 1.0
2200.470248181254 0.9999997682633771
2200.4724486526025 0.9999979858675873
2200.4746491261512 0.9999945371119989
2200.4768496019005 0.9999907175055003
2200.4790500798504 0.9999874385477364
2200.4812505600003 0.9999849927488176
2200.483451042351 0.9999833738104605
2200.4856515269025 0.999982497179792
2200.487852013654 0.9999823226943
2200.4900525026064 0.9999828907459056
2200.492252993759 0.9999842993914211
2200.494453487112 0.999986615603001
2200.4966539826655 0.999989603092998
2200.49885448042 0.9999924233538171
2200.5010549803746 0.9999945276376214
2200.5032554825298 0.9999961836411461
2200.5054559868854 0.9999968571360371
2200.5076564934416 0.9999958450246108
2200.5098570021983 0.999994059273557
2200.5120575131555 0.9999921987875308
2200.514258026313 0.9999899626253519
2200.5164585416715 0.9999873080280751
2200.5186590592302 0.9999849480851085
2200.5208595789895 0.9999833764812367
2200.5230601009494 0.9999826877902925
2200.5252606251097 0.9999827393081865
2200.5274611514706 0.9999828138180691
2200.529661680032 0.9999816807554015
2200.531862210794 0.9999799616944662
2200.5340627437563 0.9999787794222113
2200.5362632789193 0.9999783051681401
2200.5384638162827 0.9999782039402929
2200.5406643558467 0.9999777926991193
2200.5428648976113 0.9999769477961772
2200.5450654415763 0.9999762634907526
2200.547265987742 0.9999760720623261
2200.549466536108 0.9999764503649458
2200.5516670866746 0.9999774321309108
2200.553867639442 0.999978984578443
2200.55606819441 0.9999804722864059
2200.5582687515785 0.9999803206561018
2200.560469310947 0.9999791931420996
2200.562669872517 0.9999785166411523
2200.564870436287 0.9999786423539831
2200.5670710022578 0.9999796568601179
2200.5692715704286 0.9999816631746705
2200.571472140801 0.9999846398392437
2200.573672713373 0.9999869175842792
2200.575873288146 0.9999859647843525
2200.578073865119 0.9999845251274173
2200.5802744442935 0.9999840010829835
2200.5824750256684 0.9999845078321759
2200.5846756092433 0.9999860421129938
2200.586876195019 0.9999884711194648
2200.5890767829956 0.9999912089417289
2200.5912773731725 0.9999934107055426
2200.59347796555 0.9999949559156455
2200.5956785601284 0.9999957773639481
2200.597879156907 0.9999955754000903
2200.6000797558863 0.9999947420881575
2200.6022803570663 0.9999937281859631
2200.604480960447 0.9999923900777467
2200.6066815660283 0.9999902998410055
2200.60888217381 0.9999878195014789
2200.611082783792 0.9999858214038277
2200.613283395975 0.999984734596499
2200.6154840103586 0.9999846524648914
2200.617684626943 0.9999856026655036
2200.619885245728 0.9999876190055506
2200.6220858667134 0.9999906394553233
2200.6242864898995 0.9999940899246266
2200.626487115286 0.9999962557597416
2200.6286877428734 0.9999959790676174
2200.6308883726615 0.9999945563295093
2200.63308900465 0.9999931693216243
2200.6352896388394 0.9999922476020693
2200.637490275229 0.999991913552073
2200.63969091382 0.9999921864021031
2200.641891554611 0.9999929809322128
2200.6440921976027 0.9999939630261906
2200.646292842795 0.999994565741542
2200.6484934901882 0.9999944210505565
2200.650694139782 0.9999934779436471
2200.6528947915763 0.9999920637394736
2200.655095445571 0.999990828320271
2200.657296101767 0.9999901511696773
2200.659496760163 0.9999900191552837
2200.66169742076 0.999990280308836
2200.663898083558 0.999990916971744
2200.6660987485557 0.9999919885200155
2200.668299415755 0.9999933496269755
2200.6705000851543 0.9999943066899347
2200.6727007567547 0.9999932501128431
2200.6749014305556 0.9999902155877303
2200.677102106557 0.999987332889225
2200.67930278476 0.9999854701029538
2200.6815034651627 0.9999847091139757
2200.6837041477665 0.9999850194641323
2200.685904832571 0.9999864065656185
2200.6881055195763 0.9999888822856688
2200.6903062087817 0.9999922650312525
2200.6925069001886 0.9999956872018979
2200.6947075937956 0.9999974424316228
2200.6969082896035 0.9999969742271723
2200.699108987612 0.9999953790374625
2200.701309687821 0.9999936935804846
2200.7035103902313 0.9999924805224188
2200.7057110948417 0.9999918209777974
2200.707911801653 0.9999912039739304
2200.710112510665 0.9999893417475838
2200.7123132218776 0.999985655597671
2200.7145139352915 0.9999817941640672
2200.7167146509055 0.9999788696772327
2200.7189153687204 0.9999769712973754
2200.721116088736 0.9999759768678461
2200.7233168109524 0.9999758054111478
2200.72551753537 0.9999764441385041
2200.7277182619873 0.9999779500743625
2200.729918990806 0.9999804593928443
2200.7321197218253 0.9999841283055149
2200.7343204550452 0.9999886074936495
2200.736521190466 0.9999918521714594
2200.7387219280877 0.9999927060128042
2200.7409226679097 0.9999928502387438
2200.7431234099327 0.9999931012307226
2200.7453241541566 0.9999932936223532
2200.747524900581 0.9999930935778756
2200.749725649206 0.9999926008735209
2200.751926400032 0.9999920954716932
2200.754127153059 0.999991561663946
2200.7563279082865 0.9999907674673209
2200.7585286657145 0.9999896829389816
2200.7607294253435 0.999988536037028
2200.7629301871734 0.9999876352315719
2200.765130951204 0.999987265193214
2200.767331717435 0.9999875080982951
2200.769532485867 0.9999880127755536
2200.7717332565 0.9999880409372842
2200.7739340293333 0.999987453886168
2200.7761348043678 0.9999867773066511
2200.7783355816027 0.9999862495215658
2200.7805363610387 0.9999859067329004
2200.782737142675 0.9999858843103558
2200.7849379265126 0.9999863922831264
2200.787138712551 0.9999876138642538
2200.78933950079 0.9999896354021988
2200.79154029123 0.9999922270864028
2200.7937410838704 0.9999943560233246
2200.795941878712 0.9999949602451549
2200.798142675754 0.9999948254971235
2200.800343474997 0.9999948265302006
2200.802544276441 0.9999949946333295
2200.804745080086 0.9999952076132302
2200.806945885931 0.9999956121228903
2200.8091466939773 0.9999963638435062
2200.811347504224 0.9999972096335383
2200.813548316672 0.9999974457273297
2200.8157491313204 0.9999969016038321
2200.8179499481703 0.9999963106532206
2200.8201507672206 0.9999961766120999
2200.8223515884715 0.9999965052636691
2200.8245524119234 0.9999970192909526
2200.826753237576 0.9999972510742464
2200.8289540654296 0.9999968381876361
2200.8311548954844 0.9999959583256238
2200.833355727739 0.9999951686944961
2200.8355565621955 0.9999948131194747
2200.8377573988523 0.9999947491442348
2200.83995823771 0.9999944401468618
2200.842159078769 0.9999935420694714
2200.844359922028 0.9999924038394173
2200.8465607674884 0.9999914964038937
2200.8487616151497 0.9999910410294639
2200.850962465012 0.9999911186624586
2200.853163317074 0.9999916502837707
2200.855364171338 0.9999921339369342
2200.8575650278026 0.9999919106363612
2200.8597658864683 0.9999913229112704
2200.8619667473345 0.9999911784170065
2200.864167610401 0.999991814515898
2200.8663684756693 0.9999931469917752
2200.8685693431385 0.9999947230851279
2200.870770212808 0.9999959175956938
2200.8729710846787 0.9999965270265089
2200.87517195875 0.9999966739256702
2200.8773728350225 0.9999962526566875
2200.8795737134956 0.9999951020185468
2200.8817745941697 0.9999933980150364
2200.8839754770443 0.9999915197836959
2200.8861763621203 0.9999897878647926
2200.888377249397 0.9999884427272552
2200.890578138875 0.9999876903188308
2200.8927790305534 0.9999876969424477
2200.8949799244324 0.9999885759439847
2200.897180820513 0.9999903744383957
2200.899381718794 0.9999929857453211
2200.901582619276 0.9999957470269588
2200.903783521959 0.9999968340416989
2200.905984426843 0.9999958798897663
2200.908185333928 0.9999947816270558
2200.9103862432135 0.9999943484336592
2200.9125871547003 0.9999945367922657
2200.9147880683877 0.9999950311031055
2200.916988984276 0.9999956046304949
2200.9191899023654 0.9999962548666774
2200.921390822655 0.999996801497114
2200.9235917451465 0.9999967738260958
2200.9257926698388 0.9999961139344519
2200.9279935967315 0.9999951785827269
2200.9301945258253 0.9999941539885729
2200.9323954571205 0.9999929907405996
2200.934596390616 0.9999912697573964
2200.936797326313 0.9999886793696299
2200.9389982642106 0.9999860162608653
2200.941199204309 0.9999841138867477
2200.9434001466084 0.9999832079734514
2200.945601091109 0.9999833079034806
2200.9478020378106 0.9999844095768474
2200.9500029867127 0.9999864857447532
2200.952203937816 0.9999892717119204
2200.9544048911207 0.9999918768649884
2200.9566058466257 0.999993013210645
2200.958806804332 0.9999925084415706
2200.9610077642396 0.9999914362570895
2200.9632087263476 0.9999906635856121
2200.9654096906565 0.99999053793032
2200.967610657167 0.9999910493356832
2200.969811625878 0.9999916981610761
2200.9720125967897 0.9999916759797874
2200.974213569903 0.9999911243703272
2200.976414545217 0.9999907797416592
2200.9786155227316 0.9999908781312747
2200.980816502448 0.999991257763648
2200.9830174843646 0.9999914643768124
2200.9852184684823 0.9999909455505438
2200.9874194548015 0.9999900035948712
2200.989620443321 0.9999894933647226
2200.991821434042 0.9999898698773386
2200.994022426964 0.9999912103406879
2200.9962234220866 0.9999932237214711
2200.9984244194106 0.9999948172484964
2201.000625418935 0.9999946876985927
2201.002826420661 0.9999935053374598
2201.0050274245878 0.9999924396336055
2201.0072284307157 0.999991831812137
2201.0094294390447 0.9999914089680336
2201.0116304495746 0.9999903985167615
2201.0138314623055 0.9999884813434595
2201.0160324772373 0.9999864563998324
2201.01823349437 0.999985023178654
2201.020434513704 0.9999844228252464
2201.022635535239 0.9999847125295891
2201.0248365589746 0.9999858257097559
2201.027037584912 0.9999872002746891
2201.0292386130495 0.999987287476497
2201.0314396433887 0.9999858442038784
2201.033640675929 0.9999843800800517
2201.03584171067 0.9999836225763807
2201.038042747612 0.9999837568905708
2201.0402437867556 0.9999848653289745
2201.0424448280996 0.9999870152525189
2201.044645871645 0.9999900672315888
2201.046846917391 0.9999925268128574
2201.0490479653386 0.9999915867990513
2201.051249015487 0.9999890975748801
2201.0534500678364 0.9999871094518156
2201.055651122387 0.9999860305910719
2201.0578521791385 0.9999858982388283
2201.0600532380913 0.9999866094623029
2201.062254299245 0.9999877111442383
2201.0644553626 0.9999880713680339
2201.066656428156 0.9999868268035449
2201.0688574959127 0.9999847487500162
2201.0710585658708 0.9999829293965421
2201.07325963803 0.9999818270726842
2201.07546071239 0.9999815484413814
2201.077661788951 0.9999821224428285
2201.0798628677135 0.9999835515174688
2201.082063948677 0.9999855905391938
2201.0842650318414 0.9999871585525263
2201.086466117207 0.9999872097081448
2201.088667204773 0.9999862620749402
2201.090868294541 0.9999847849076332
2201.0930693865093 0.9999832780760978
2201.0952704806796 0.9999822889905935
2201.0974715770503 0.9999820642396621
2201.0996726756225 0.9999826422604203
2201.1018737763957 0.9999838919818951
2201.10407487937 0.9999853634669322
2201.1062759845454 0.9999864499609276
2201.1084770919215 0.9999871678523974
2201.110678201499 0.9999880256611764
2201.112879313278 0.9999893782698276
2201.1150804272575 0.9999911729104273
2201.1172815434384 0.9999923299854419
2201.1194826618207 0.9999912808238043
2201.1216837824036 0.9999891878793131
2201.123884905188 0.9999875551722989
2201.1260860301736 0.9999867268938493
2201.12828715736 0.9999865979155432
2201.1304882867475 0.9999868855326536
2201.132689418336 0.9999872714908414
2201.1348905521263 0.9999873850306673
2201.1370916881174 0.999986496130748
2201.1392928263094 0.9999845450964323
2201.141493966703 0.9999826087661258
2201.1436951092974 0.9999813188762101
2201.145896254093 0.9999807687524651
2201.1480974010897 0.9999808805014122
2201.1502985502875 0.9999814834468177
2201.1524997016863 0.9999821224043296
2201.1547008552866 0.9999819192553103
2201.1569020110883 0.9999809120769397
2201.159103169091 0.9999801096835915
2201.161304329294 0.9999799631231453
2201.163505491699 0.9999804170548044
2201.165706656305 0.9999810656966432
2201.1679078231123 0.9999814712133374
