Atmospheric Species: CO
Metallicity: 100
C/O_Ratio: 0.5
Wavelength[nm] Flux_variation
899.9996421494948 0.9999999070360933
900.0005421495869 0.9999999070361095
900.001442150579 0.9999999070361256
900.0023421524711 0.9999999070361419
900.0032421552633 0.999999907036158
900.0041421589555 0.9999999070361743
900.0050421635475 0.9999999070361903
900.0059421690396 0.9999999070362066
900.0068421754318 0.9999999070362228
900.0077421827239 0.9999999070362389
900.0086421909161 0.9999999070362552
900.0095422000082 0.9999999070362054
900.0104422100004 0.9999999070361123
900.0113422208927 0.9999999070360192
900.0122422326849 0.999999907035926
900.013142245377 0.9999999070358329
900.0140422589691 0.9999999070357399
900.0149422734613 0.9999999070356467
900.0158422888536 0.9999999070355535
900.0167423051458 0.9999999070354605
900.017642322338 0.9999999070353673
900.0185423404303 0.9999999070352741
900.0194423594227 0.9999999070351809
900.020342379315 0.9999999070350879
900.0212424001073 0.9999999070349946
900.0221424217997 0.9999999070349015
900.0230424443921 0.9999999070348085
900.0239424678846 0.9999999070347153
900.024842492277 0.999999907034622
900.0257425175695 0.999999907034529
900.0266425437621 0.9999999070344359
900.0275425708543 0.9999999070343426
900.028442598847 0.9999999070342493
900.0293426277395 0.9999999070341563
900.0302426575322 0.999999907034063
900.0311426882248 0.9999999070339699
900.0320427198175 0.9999999070338768
900.0329427523099 0.9999999070337835
900.0338427857027 0.9999999070336903
900.0347428199954 0.9999999070335972
900.0356428551884 0.999999907033504
900.0365428912813 0.9999999070334108
900.0374429282743 0.9999999070333175
900.0383429661671 0.9999999070332244
900.0392430049601 0.9999999070331312
900.0401430446531 0.999999907033038
900.0410430852461 0.9999999070329448
900.041943126739 0.9999999070328516
900.0428431691322 0.9999999070327583
900.0437432124255 0.9999999070326652
900.0446432566187 0.9999999070325719
900.0455433017121 0.9999999070324787
900.0464433477051 0.9999999070323885
900.0473433945986 0.9999999070323019
900.0482434423918 0.9999999070322153
900.0491434910853 0.9999999070321288
900.0500435406788 0.9999999070320421
900.0509435911723 0.9999999070319556
900.051843642566 0.9999999070318689
900.0527436948595 0.9999999070317824
900.0536437480532 0.9999999070316958
900.0545438021469 0.9999999070316091
900.0554438571407 0.9999999070315226
900.0563439130347 0.9999999070314359
900.0572439698285 0.9999999070313494
900.0581440275225 0.9999999070312627
900.0590440861165 0.9999999070311761
900.0599441456106 0.9999999070310895
900.0608442060047 0.9999999070310028
900.0617442672989 0.9999999070309163
900.0626443294932 0.9999999070308296
900.0635443925875 0.999999907030743
900.064444456582 0.9999999070306563
900.0653445214763 0.9999999070305698
900.0662445872707 0.9999999070304831
900.0671446539653 0.9999999070303965
900.06804472156 0.9999999070303098
900.0689447900545 0.9999999070302232
900.0698448594495 0.9999999070301365
900.0707449297444 0.9999999070300498
900.0716450009393 0.9999999070299633
900.0725450730342 0.9999999070298766
900.0734451460294 0.9999999070297899
900.0743452199245 0.9999999070297033
900.0752452947198 0.9999999070296165
900.0761453704149 0.99999990702953
900.0770454470104 0.9999999070294433
900.0779455245058 0.9999999070293567
900.0788456029013 0.9999999070292699
900.0797456821969 0.9999999070291832
900.0806457623926 0.9999999070290967
900.0815458434884 0.9999999070290099
900.0824459254843 0.9999999070289233
900.0833460083802 0.9999999070288366
900.0842460921762 0.9999999070287499
900.0851461768722 0.9999999070286631
900.0860462624685 0.9999999070285764
900.0869463489646 0.9999999070284897
900.087846436361 0.999999907028403
900.0887465246574 0.9999999070283164
900.0896466138541 0.9999999070282296
900.0905467039507 0.999999907028143
900.0914467949473 0.9999999070280563
900.0923468868441 0.9999999070279696
900.093246979641 0.9999999070278828
900.0941470733379 0.9999999070277961
900.095047167935 0.9999999070277094
900.0959472634321 0.9999999070276226
900.0968473598296 0.9999999070275359
900.0977474571268 0.9999999070274491
900.0986475553243 0.9999999070273625
900.0995476544218 0.9999999070272757
900.1004477544196 0.999999907027189
900.1013478553174 0.9999999070271022
900.1022479571152 0.9999999070270155
900.1031480598132 0.9999999070269288
900.1040481634111 0.999999907026842
900.1049482679095 0.9999999070267553
900.1058483733077 0.9999999070266685
900.1067484796062 0.9999999070265817
900.1076485868047 0.999999907026495
900.1085486949032 0.9999999070264082
900.1094488039018 0.9999999070263216
900.1103489138007 0.9999999070262346
900.1112490245996 0.999999907026148
900.1121491362986 0.9999999070260611
900.1130492488979 0.9999999070259743
900.1139493623971 0.9999999070258876
900.1148494767965 0.9999999070258008
900.115749592096 0.9999999070257141
900.1166497082957 0.9999999070256272
900.1175498253954 0.9999999070255405
900.1184499433953 0.9999999070254537
900.1193500622951 0.9999999070253668
900.1202501820952 0.9999999070252801
900.1211503027954 0.9999999070251933
900.1220504243958 0.9999999070251065
900.1229505468962 0.9999999070250196
900.1238506702967 0.9999999070249329
900.1247507945975 0.9999999070248461
900.1256509197983 0.9999999070247593
900.1265510458993 0.9999999070246725
900.1274511729004 0.9999999070245856
900.1283513008017 0.9999999070244988
900.129251429603 0.999999907024412
900.1301515593042 0.999999907024325
900.1310516899059 0.9999999070242384
900.1319518214076 0.9999999070241514
900.1328519538096 0.9999999070240646
900.1337520871116 0.9999999070239777
900.1346522213137 0.999999907023891
900.1355523564158 0.9999999070238041
900.1364524924182 0.9999999070237171
900.1373526293208 0.9999999070236304
900.1382527671235 0.9999999070235435
900.1391529058263 0.9999999070234568
900.1400530454292 0.9999999070233698
900.1409531859323 0.999999907023283
900.1418533273356 0.9999999070231961
900.1427534696388 0.9999999070231091
900.1436536128424 0.9999999070230223
900.144553756946 0.9999999070229354
900.1454539019498 0.9999999070228487
900.1463540478538 0.9999999070227618
900.1472541946582 0.9999999070226748
900.1481543423622 0.9999999070225879
900.1490544909666 0.999999907022501
900.149954640471 0.9999999070224143
900.1508547908757 0.9999999070223272
900.1517549421804 0.9999999070222404
900.1526550943853 0.9999999070221535
900.1535552474907 0.9999999070220666
900.1544554014959 0.9999999070219797
900.1553555564013 0.9999999070218928
900.156255712207 0.9999999070218059
900.1571558689127 0.9999999070217189
900.1580560265187 0.9999999070216321
900.1589561850247 0.9999999070215452
900.159856344431 0.9999999070214584
900.1607565047374 0.9999999070213713
900.161656665944 0.9999999070212844
900.1625568280508 0.9999999070211976
900.1634569910575 0.9999999070211105
900.1643571549646 0.9999999070210236
900.1652573197717 0.9999999070209367
900.166157485479 0.9999999070208498
900.1670576520864 0.9999999070207628
900.1679578195943 0.9999999070206759
900.1688579880022 0.999999907020589
900.1697581573101 0.999999907020502
900.1706583275183 0.9999999070204151
900.1715584986268 0.9999999070203921
900.1724586706354 0.999999907020415
900.1733588435441 0.9999999070204378
900.1742590173529 0.9999999070204605
900.1751591920622 0.9999999070204834
900.1760593676713 0.999999907020506
900.1769595441807 0.9999999070205288
900.1778597215903 0.9999999070205516
900.1787598999 0.9999999070205743
900.17966007911 0.999999907020597
900.1805602592201 0.9999999070206197
900.1814604402305 0.9999999070206426
900.182360622141 0.9999999070206653
900.1832608049516 0.9999999070206881
900.1841609886624 0.9999999070207108
900.1850611732734 0.9999999070207336
900.1859613587848 0.9999999070207563
900.1868615451962 0.9999999070207791
900.1877617325077 0.9999999070208018
900.1886619207195 0.9999999070208246
900.1895621098315 0.9999999070208475
900.1904622998437 0.9999999070208702
900.1913624907561 0.999999907020893
900.1922626825685 0.9999999070209157
900.1931628752812 0.9999999070209384
900.1940630688943 0.9999999070209612
900.1949632634075 0.9999999070209838
900.1958634588207 0.9999999070210067
900.1967636551343 0.9999999070210295
900.1976638523481 0.9999999070210521
900.1985640504619 0.999999907021075
900.199464249476 0.9999999070210976
900.2003644493906 0.9999999070211205
900.2012646502048 0.9999999070211432
900.2021648519196 0.9999999070211659
900.2030650545345 0.9999999070211888
900.2039652580496 0.9999999070212114
900.2048654624649 0.9999999070212343
900.2057656677805 0.9999999070212571
900.206665873996 0.9999999070212797
900.2075660811121 0.9999999070213026
900.2084662891282 0.999999907021344
900.2093664980446 0.9999999070214224
900.2102667078611 0.9999999070215009
900.211166918578 0.9999999070215793
900.2120671301949 0.9999999070216576
900.2129673427122 0.9999999070217361
900.2138675561295 0.9999999070218145
900.2147677704475 0.999999907021893
900.2156679856652 0.9999999070219713
900.2165682017832 0.9999999070220498
900.2174684188016 0.9999999070221283
900.2183686367199 0.9999999070222068
900.2192688555386 0.999999907022285
900.2201690752576 0.9999999070223636
900.2210692958768 0.999999907022442
900.2219695173961 0.9999999070225204
900.2228697398157 0.9999999070225989
900.2237699631354 0.9999999070226773
900.2246701873555 0.9999999070227558
900.2255704124758 0.9999999070228341
900.2264706384963 0.9999999070229125
900.2273708654169 0.999999907022991
900.2282710932378 0.9999999070230694
900.229171321959 0.9999999070231479
900.2300715515805 0.9999999070232264
900.2309717821018 0.9999999070233049
900.2318720135238 0.9999999070233833
900.2327722458459 0.9999999070234618
900.2336724790683 0.9999999070235402
900.2345727131908 0.9999999070236186
900.2354729482137 0.999999907023697
900.2363731841367 0.9999999070237756
900.2372734209599 0.999999907023854
900.2381736586835 0.9999999070239324
900.2390738973071 0.9999999070240109
900.2399741368312 0.9999999070240895
900.2408743772554 0.999999907024168
900.2417746185798 0.9999999070242463
900.2426748608045 0.9999999070243248
900.2435751039295 0.9999999070244033
900.2444753479547 0.9999999070244816
900.2453755928801 0.9999999070245601
900.2462758387059 0.9999999070246387
900.2471760854318 0.9999999070247172
900.2480763330581 0.9999999070247956
900.2489765815844 0.9999999070248741
900.2498768310113 0.9999999070249526
900.250777081338 0.999999907025031
900.2516773325652 0.9999999070251094
900.2525775846927 0.999999907025188
900.2534778377203 0.9999999070252665
900.2543780916483 0.9999999070253449
900.2552783464765 0.9999999070254235
900.2561786022051 0.9999999070255019
900.2570788588337 0.9999999070255804
900.2579791163627 0.9999999070256589
900.2588793747918 0.9999999070257374
900.2597796341213 0.999999907025816
900.260679894351 0.9999999070258944
900.261580155481 0.9999999070259729
900.2624804175114 0.9999999070260513
900.2633806804417 0.9999999070261298
900.2642809442725 0.9999999070262083
900.2651812090035 0.9999999070262868
900.266081474635 0.9999999070263653
900.2669817411663 0.9999999070264438
900.2678820085983 0.9999999070265223
900.2687822769304 0.9999999070266008
900.2696825461628 0.9999999070266793
900.2705828162955 0.9999999070267579
900.2714830873283 0.9999999070268364
900.2723833592615 0.9999999070269149
900.273283632095 0.9999999070269934
900.2741839058286 0.9999999070270719
900.2750841804626 0.9999999070271504
900.275984455997 0.999999907027229
900.2768847324317 0.9999999070273075
900.2777850097663 0.9999999070273858
900.2786852880015 0.9999999070274644
900.2795855671369 0.9999999070275429
900.2804858471725 0.9999999070276214
900.2813861281085 0.9999999070277
900.2822864099447 0.9999999070277785
900.2831866926813 0.999999907027857
900.2840869763181 0.9999999070279355
900.2849872608552 0.9999999070280141
900.2858875462927 0.9999999070280925
900.2867878326304 0.9999999070281711
900.2876881198681 0.9999999070282497
900.2885884080065 0.9999999070283282
900.2894886970449 0.9999999070284067
900.2903889869838 0.9999999070284853
900.2912892778226 0.9999999070285639
900.292189569562 0.9999999070286423
900.2930898622019 0.9999999070287209
900.2939901557417 0.9999999070287994
900.2948904501819 0.999999907028878
900.2957907455225 0.9999999070289565
900.2966910417633 0.9999999070290351
900.2975913389042 0.9999999070291136
900.2984916369458 0.9999999070291921
900.2993919358875 0.9999999070292706
900.3002922357296 0.9999999070293493
900.3011925364718 0.9999999070294278
900.3020928381144 0.9999999070295064
900.3029931406575 0.9999999070295849
900.3038934441007 0.9999999070296635
900.3047937484444 0.999999907029742
900.3056940536881 0.9999999070298204
900.3065943598324 0.999999907029899
900.3074946668769 0.9999999070299777
900.3083949748217 0.9999999070300561
900.309295283667 0.9999999070301347
900.3101955934121 0.9999999070302134
900.3110959040579 0.9999999070302918
900.3119962156038 0.9999999070303703
900.3128965280501 0.999999907030449
900.3137968413969 0.9999999070305275
900.3146971556439 0.999999907030606
900.3155974707911 0.9999999070306846
900.3164977868386 0.9999999070307634
900.3173981037866 0.9999999070308419
900.3182984216348 0.9999999070309203
900.3191987403833 0.999999907030999
900.3200990600324 0.9999999070310777
900.3209993805816 0.999999907031156
900.321899702031 0.9999999070312348
900.3228000243807 0.9999999070313134
900.323700347631 0.999999907031392
900.3246006717815 0.9999999070314703
900.3255009968323 0.999999907031549
900.3264013227833 0.9999999070316277
900.3273016496348 0.9999999070317062
900.3282019773867 0.9999999070317848
900.3291023060387 0.9999999070318634
900.3300026355911 0.999999907031942
900.3309029660439 0.9999999070320206
900.331803297397 0.9999999070320991
900.3327036296505 0.9999999070321778
900.3336039628042 0.9999999070322594
900.3345042968583 0.9999999070323436
900.3354046318127 0.999999907032428
900.3363049676675 0.9999999070325123
900.3372053044228 0.9999999070325968
900.3381056420781 0.999999907032681
900.3390059806339 0.9999999070327654
900.33990632009 0.9999999070328498
900.3408066604466 0.9999999070329342
900.3417070017032 0.9999999070330184
900.3426073438604 0.9999999070331028
900.343507686918 0.9999999070331872
900.3444080308757 0.9999999070332716
900.3453083757339 0.9999999070333558
900.3462087214925 0.9999999070334401
900.3471090681511 0.9999999070335246
900.3480094157104 0.999999907033609
900.34890976417 0.9999999070336933
900.3498101135299 0.9999999070337776
900.3507104637902 0.999999907033862
900.3516108149508 0.9999999070339463
900.3525111670116 0.9999999070340307
900.353411519973 0.9999999070341151
900.3543118738346 0.9999999070341995
900.3552122285967 0.9999999070342839
900.3561125842591 0.9999999070343681
900.3570129408217 0.9999999070344525
900.3579132982849 0.9999999070345369
900.3588136566484 0.9999999070346214
900.3597140159121 0.9999999070347056
900.3606143760762 0.9999999070347901
900.3615147371407 0.9999999070348744
900.3624150991056 0.9999999070349587
900.3633154619708 0.999999907035043
900.3642158257364 0.9999999070351275
900.3651161904023 0.999999907035212
900.3660165559686 0.9999999070352964
900.3669169224354 0.9999999070353806
900.3678172898025 0.9999999070354649
900.3687176580698 0.9999999070355494
900.3696180272376 0.9999999070356339
900.370518397306 0.9999999070357187
900.3714187682745 0.9999999070358052
900.3723191401434 0.9999999070358919
900.3732195129127 0.9999999070359784
900.3741198865823 0.9999999070360651
900.3750202611524 0.9999999070361517
900.3759206366227 0.9999999070362383
900.3768210129937 0.999999907036325
900.3777213902647 0.9999999070364116
900.3786217684362 0.9999999070364982
900.3795221475082 0.9999999070365848
900.3804225274805 0.9999999070366715
900.3813229083532 0.999999907036758
900.3822232901261 0.9999999070368447
900.3831236727998 0.9999999070369313
900.3840240563736 0.999999907037018
900.3849244408478 0.9999999070371046
900.3858248262225 0.9999999070371913
900.3867252124975 0.9999999070372779
900.3876255996728 0.9999999070373646
900.3885259877486 0.9999999070374511
900.3894263767248 0.9999999070375378
900.3903267666016 0.9999999070376244
900.3912271573782 0.9999999070377111
900.3921275490555 0.9999999070377977
900.3930279416334 0.9999999070378844
900.3939283351115 0.999999907037971
900.3948287294899 0.9999999070380577
900.3957291247688 0.9999999070381443
900.3966295209481 0.9999999070382309
900.3975299180277 0.9999999070383176
900.3984303160078 0.9999999070384042
900.3993307148883 0.999999907038491
900.4002311146692 0.9999999070385776
900.4011315153505 0.9999999070386643
900.4020319169321 0.999999907038751
900.402932319414 0.9999999070388377
900.4038327227967 0.9999999070389242
900.4047331270797 0.9999999070390108
900.405633532263 0.9999999070390975
900.4065339383466 0.9999999070391842
900.4074343453307 0.9999999070392709
900.4083347532152 0.9999999070393576
900.4092351620001 0.9999999070394442
900.4101355716855 0.9999999070395308
900.4110359822713 0.9999999070396175
900.4119363937574 0.9999999070397042
900.4128368061439 0.9999999070397908
900.4137372194309 0.9999999070398775
900.4146376336182 0.9999999070399642
900.4155380487061 0.9999999070400508
900.4164384646944 0.9999999070401375
900.4173388815831 0.9999999070402242
900.4182392993721 0.9999999070403109
900.4191397180616 0.9999999070403975
900.4200401376515 0.9999999070404841
900.4209405581418 0.9999999070405708
900.4218409795324 0.9999999070406577
900.4227414018235 0.9999999070407443
900.423641825015 0.999999907040831
900.424542249107 0.9999999070409177
900.4254426740995 0.9999999070410044
900.4263430999921 0.999999907041091
900.4272435267856 0.9999999070411777
900.4281439544791 0.9999999070412644
900.4290443830733 0.999999907041351
900.4299448125679 0.9999999070414377
900.4308452429628 0.9999999070415245
900.4317456742582 0.9999999070416111
900.4326461064541 0.9999999070416978
900.4335465395504 0.9999999070417845
900.4344469735471 0.9999999070418712
900.4353474084443 0.9999999070419578
900.4362478442418 0.9999999070420447
900.4371482809398 0.9999999070421313
900.4380487185383 0.9999999070422181
900.4389491570372 0.9999999070423048
900.4398495964364 0.9999999070423915
900.4407500367362 0.9999999070424782
900.4416504779364 0.9999999070425648
900.4425509200371 0.9999999070426515
900.4434513630382 0.9999999070427382
900.4443518069397 0.9999999070428249
900.4452522517419 0.9999999070429118
900.4461526974443 0.9999999070429985
900.4470531440471 0.9999999070430851
900.4479535915502 0.9999999070431718
900.448854039954 0.9999999070432585
900.4497544892585 0.9999999070433453
900.4506549394631 0.999999907043432
900.4515553905683 0.9999999070435186
900.4524558425738 0.9999999070436053
900.4533562954798 0.9999999070436921
900.4542567492863 0.999999907043779
900.4551572039933 0.9999999070438657
900.4560576596007 0.9999999070439523
900.4569581161086 0.999999907044039
900.4578585735169 0.9999999070441257
900.4587590318256 0.9999999070442125
900.4596594910348 0.9999999070442992
900.4605599511445 0.999999907044386
900.4614604121547 0.9999999070444727
900.4623608740653 0.9999999070445594
900.4632613368763 0.9999999070446461
900.4641618005877 0.9999999070447327
900.4650622651999 0.9999999070448196
900.4659627307124 0.9999999070449063
900.4668631971253 0.999999907044993
900.4677636644387 0.9999999070450798
900.4686641326526 0.9999999070451666
900.4695646017668 0.9999999070452532
900.4704650717817 0.99999990704534
900.4713655426972 0.9999999070454269
900.4722660145127 0.9999999070455134
900.473166487229 0.9999999070456002
900.4740669608458 0.999999907045687
900.4749674353628 0.9999999070457737
900.4758679107805 0.9999999070458604
900.4767683870987 0.9999999070459472
900.4776688643173 0.999999907046034
900.4785693424363 0.9999999070461207
900.479469821456 0.9999999070462074
900.4803703013758 0.9999999070462942
900.4812707821965 0.999999907046381
900.4821712639174 0.9999999070464677
900.4830717465388 0.9999999070465545
900.4839722300608 0.9999999070466412
900.4848727144832 0.999999907046728
900.4857731998062 0.9999999070468149
