Atmospheric Species: H2O
Metallicity: 1
C/O_Ratio: 0.5
Wavelength[nm] Flux_variation
999.9990867268679 0.9998912007348217
1000.0000867264545 0.9998721450563841
1000.0010867270413 0.999841550400225
1000.0020867286277 0.9998116163397758
1000.0030867312147 0.9997915127710488
1000.0040867348013 0.9997860126185689
1000.0050867393879 0.9997962528986178
1000.0060867449746 0.9998201496446647
1000.0070867515615 0.9998521920459041
1000.0080867591481 0.9998845216390685
1000.0090867677349 0.999910103357683
1000.0100867773216 0.9999257900211553
1000.0110867879083 0.9999329394894501
1000.0120867994951 0.9999345543166918
1000.0130868120818 0.999932938250768
1000.0140868256685 0.9999293980042562
1000.0150868402555 0.9999242850313368
1000.0160868558423 0.9999166525525928
1000.0170868724291 0.9999045598580663
1000.0180868900158 0.9998873325345643
1000.0190869086025 0.9998674743606725
1000.0200869281896 0.999848678596103
1000.0210869487765 0.9998334222777779
1000.0220869703634 0.999823153234206
1000.0230869929503 0.9998188568945935
1000.0240870165372 0.9998210520545711
1000.0250870411243 0.9998296039469492
1000.0260870667114 0.999843648076303
1000.0270870932983 0.9998619626364333
1000.0280871208853 0.9998828779069245
1000.0290871494724 0.9999031177436244
1000.0300871790596 0.9999184839408232
1000.0310872096469 0.9999264133556586
1000.0320872412341 0.9999259741492958
1000.0330872738213 0.9999163395311835
1000.0340873074085 0.9998980562703013
1000.035087341996 0.9998752609620662
1000.0360873775834 0.9998535940116556
1000.0370874141706 0.9998374569129919
1000.0380874517581 0.9998297337754408
1000.0390874903455 0.9998316777927292
1000.040087529933 0.9998425175877156
1000.0410875705202 0.9998585670693072
1000.0420876121078 0.9998706099831138
1000.0430876546953 0.9998648119134315
1000.0440876982829 0.9998388346722162
1000.0450877428707 0.9998049595894083
1000.0460877884583 0.9997745561617972
1000.0470878350463 0.9997537964180192
1000.0480878826341 0.999744043048756
1000.0490879312221 0.999742688939864
1000.0500879808101 0.9997466116435596
1000.0510880313981 0.9997572338592462
1000.052088082986 0.9997790465868808
1000.0530881355742 0.9998128610808034
1000.0540881891621 0.9998518516164118
1000.0550882437503 0.999884277844433
1000.0560882993386 0.9999025236474367
1000.057088355927 0.9999086572942655
1000.0580884135152 0.9999098515132012
1000.0590884721038 0.9999117539162634
1000.0600885316923 0.9999163823417
1000.0610885922806 0.9999226363564444
1000.0620886538691 0.9999276491737819
1000.0630887164579 0.9999288981352644
1000.0640887800465 0.9999259553310897
1000.0650888446352 0.9999201911310849
1000.0660889102243 0.999913274334179
1000.0670889768132 0.9999065078796148
1000.0680890444022 0.999901381333919
1000.0690891129912 0.9998997654499638
1000.0700891825802 0.9999025213950189
1000.0710892531694 0.9999081068594435
1000.0720893247585 0.9999138842258573
1000.0730893973481 0.9999188820662215
1000.0740894709373 0.9999235362561038
1000.0750895455268 0.999926731480883
1000.0760896211164 0.9999255258509141
1000.077089697706 0.9999189102285274
1000.0780897752954 0.9999098275852956
1000.0790898538854 0.9999023253702976
1000.0800899334753 0.99989887476312
1000.0810900140654 0.9999003254769325
1000.0820900956553 0.9999065606369079
1000.0830901782452 0.9999165385959742
1000.0840902618355 0.9999280690654717
1000.0850903464259 0.9999382961028879
1000.0860904320161 0.9999451650035013
1000.0870905186066 0.9999484963953499
1000.0880906061968 0.9999495293875795
1000.0890906947876 0.9999498354921784
1000.0900907843783 0.9999505474114375
1000.091090874969 0.999951728608128
1000.09209096656 0.9999521926623947
1000.0930910591511 0.9999506010366281
1000.0940911527421 0.9999470652159934
1000.0950912473332 0.9999431540726436
1000.0960913429245 0.9999405733434201
1000.0970914395157 0.9999404573753478
1000.0980915371073 0.9999433987512868
1000.0990916356989 0.9999493177738519
1000.1000917352904 0.9999572810152492
1000.1010918358822 0.9999658498875434
1000.1020919374741 0.9999736773855243
1000.103092040066 0.9999796978000033
1000.104092143658 0.9999829679851643
1000.1050922482502 0.9999827468898019
1000.1060923538424 0.9999788456494281
1000.1070924604346 0.9999718343839701
1000.1080925680272 0.9999628479513053
1000.1090926766199 0.999953112567126
1000.1100927862127 0.9999435865813132
1000.1110928968052 0.9999350508956479
1000.1120930083981 0.9999283708524194
1000.1130931209912 0.9999244424695628
1000.1140932345844 0.9999238597204105
1000.1150933491775 0.9999265799198774
1000.1160934647708 0.9999316296331441
1000.1170935813644 0.999936809094112
1000.1180936989581 0.9999390690647246
1000.1190938175519 0.9999362439935129
1000.1200939371456 0.9999282504815139
1000.1210940577396 0.9999158296480838
1000.1220941793334 0.9998994369922994
1000.1230943019278 0.9998805993123524
1000.1240944255222 0.9998639922128231
1000.1250945501166 0.9998564718256769
1000.1260946757113 0.9998627410982053
1000.1270948023059 0.9998816191645838
1000.1280949299006 0.99990584097337
1000.1290950584957 0.9999268968283407
1000.1300951880909 0.9999408818862473
1000.1310953186861 0.9999478360631147
1000.1320954502813 0.9999470816368532
1000.1330955828766 0.9999356805489984
1000.1340957164724 0.9999123713812003
1000.1350958510682 0.9998822536431318
1000.1360959866639 0.9998547863300388
1000.1370961232601 0.9998383116176875
1000.138096260856 0.9998372644371436
1000.1390963994523 0.9998517600940816
1000.1400965390488 0.999877560118995
1000.1410966796454 0.9999067634861618
1000.1420968212423 0.999931363017991
1000.1430969638391 0.9999478831629869
1000.144097107436 0.9999575365803537
1000.1450972520331 0.9999624227608817
1000.1460973976305 0.9999631680228579
1000.1470975442279 0.9999591917370149
1000.1480976918256 0.9999502389638558
1000.149097840423 0.9999382598072305
1000.1500979900211 0.9999277585088507
1000.151098140619 0.9999229438148401
1000.1520982922174 0.9999239824270524
1000.1530984448154 0.9999263058360102
1000.154098598414 0.9999239676090972
1000.1550987530128 0.9999148626469582
1000.1560989086115 0.9999030706109769
1000.1570990652104 0.9998953446605057
1000.1580992228096 0.9998962255435132
1000.1590993814089 0.9999062530665352
1000.1600995410081 0.999922543230082
1000.1610997016078 0.9999404851835534
1000.1620998632073 0.9999560338241851
1000.1631000258074 0.999967313990227
1000.1641001894075 0.9999744018014376
1000.1651003540076 0.9999780306302851
1000.1661005196083 0.9999787281101299
1000.1671006862088 0.9999767413789173
1000.1681008538095 0.9999723159169841
1000.1691010224106 0.9999660006819888
1000.1701011920115 0.9999587878453103
1000.1711013626126 0.9999519322465634
1000.172101534214 0.9999464660709784
1000.1731017068156 0.9999426453837569
1000.1741018804173 0.9999394365075444
1000.1751020550191 0.9999337938262203
1000.176102230621 0.9999202833823821
1000.1771024072235 0.9998940301451003
1000.178102584826 0.9998574435880654
1000.1791027634283 0.9998215588849902
1000.1801029430311 0.9997983907758111
1000.1811031236343 0.9997946832374459
1000.1821033052373 0.999811610861353
1000.1831034878404 0.999844671029127
1000.1841036714444 0.9998826310583697
1000.185103856048 0.9999126521622858
1000.186104041652 0.9999290094052296
1000.1871042282562 0.9999336724662717
1000.1881044158606 0.9999304614756309
1000.1891046044649 0.9999207316406943
1000.1901047940696 0.9999024391843873
1000.1911049846746 0.9998728671173347
1000.1921051762795 0.999833774426081
1000.1931053688846 0.9997924523290092
1000.19410556249 0.9997571429833776
1000.1951057570957 0.9997328400789188
1000.1961059527016 0.9997219371172994
1000.1971061493076 0.999726150846738
1000.1981063469138 0.9997466324189086
1000.1991065455202 0.999782185937536
1000.2001067451266 0.9998260901371246
1000.2011069457335 0.9998661616527492
1000.2021071473406 0.9998933686756892
1000.2031073499479 0.9999083882616664
1000.2041075535553 0.9999155062365989
1000.205107758163 0.999915428110049
1000.2061079637706 0.9999070984338642
1000.2071081703787 0.9998932435340785
1000.2081083779867 0.9998799347238781
1000.2091085865953 0.9998722168211676
1000.2101087962038 0.9998723239395024
1000.2111090068129 0.999879349020639
1000.2121092184218 0.9998883606161929
1000.2131094310312 0.9998911066479884
1000.2141096446406 0.9998832494363926
1000.2151098592504 0.9998689321030718
1000.2161100748604 0.9998521465064486
1000.2171102914705 0.999831423390634
1000.2181105090809 0.9998069299464393
1000.2191107276915 0.9997871878474879
1000.2201109473023 0.9997823000920778
1000.2211111679131 0.9997966308999495
1000.2221113895246 0.9998281698014563
1000.2231116121359 0.9998680982290187
1000.2241118357476 0.9999030516741827
1000.2251120603597 0.9999230844648129
1000.2261122859717 0.9999274579256466
1000.2271125125843 0.9999216796748661
1000.2281127401967 0.9999117840528177
1000.2291129688095 0.9999018323694766
1000.2301131984226 0.9998936261371223
1000.2311134290359 0.9998876192403398
1000.2321136606492 0.9998842440764484
1000.2331138932632 0.9998831352106683
1000.2341141268771 0.9998805960638495
1000.2351143614912 0.9998713807534423
1000.2361145971057 0.9998557420557317
1000.2371148337205 0.9998403165432587
1000.2381150713354 0.9998318306362576
1000.2391153099505 0.9998336096074425
1000.240115549566 0.9998456664808184
1000.2411157901815 0.9998652850265978
1000.2421160317974 0.9998876073632339
1000.2431162744135 0.9999071440092825
1000.2441165180297 0.9999205577519197
1000.2451167626463 0.9999275705234851
1000.2461170082632 0.9999278961689241
1000.2471172548803 0.9999199534235053
1000.2481175024976 0.9999041059982351
1000.2491177511153 0.9998845575101263
1000.250118000733 0.999866377262191
1000.2511182513512 0.9998528310712499
1000.2521185029693 0.9998456807557443
1000.253118755588 0.9998458032300499
1000.254119009207 0.9998530660219177
1000.255119263826 0.9998662896439682
1000.2561195194453 0.9998834883569675
1000.2571197760649 0.999902074566414
1000.2581200336847 0.9999195212354919
1000.2591202923049 0.9999344060345722
1000.2601205519254 0.9999462880669311
1000.2611208125461 0.9999549923164477
1000.2621210741669 0.9999605603764059
1000.2631213367881 0.9999635191289932
1000.2641216004095 0.9999648514946822
1000.2651218650311 0.999965560939129
1000.2661221306531 0.9999661667091305
1000.2671223972753 0.9999665937346494
1000.2681226648979 0.9999666700139949
1000.2691229335207 0.9999667674592612
1000.2701232031435 0.9999677847027734
1000.2711234737669 0.9999704766816433
1000.2721237453907 0.9999748564793637
1000.2731240180144 0.999980147069045
1000.2741242916385 0.9999852185028684
1000.2751245662629 0.9999892209557179
1000.2761248418876 0.9999919408842693
1000.2771251185125 0.9999936791481985
1000.2781253961376 0.9999949128288373
1000.2791256747632 0.9999960345183594
1000.2801259543891 0.9999972209943947
1000.2811262350151 0.9999984073952609
1000.2821265166416 0.9999993814838221
1000.2831267992681 0.9999999433443643
1000.2841270828949 1.0
1000.2851273675221 0.9999995228503777
1000.2861276531496 0.9999984622126925
1000.2871279397773 0.999996763118176
1000.2881282274054 0.9999944930583528
1000.2891285160338 0.9999919214429746
1000.2901288056626 0.9999894313246487
1000.2911290962913 0.9999873522990606
1000.2921293879206 0.9999858888783573
1000.29312968055 0.9999851638483093
1000.2941299741797 0.999985244581424
1000.2951302688098 0.9999860743026172
1000.2961305644403 0.9999873840204182
1000.2971308610711 0.9999887322159315
1000.298131158702 0.9999897269436587
1000.299131457333 0.9999902387448542
1000.3001317569648 0.9999903719374694
1000.3011320575966 0.9999902455734608
1000.3021323592287 0.9999898639626019
1000.3031326618612 0.9999891583987458
1000.304132965494 0.9999880407695716
1000.3051332701272 0.9999863593692248
1000.3061335757607 0.9999838030229352
1000.3071338823943 0.9999798236802467
1000.3081341900283 0.9999736024120492
1000.3091344986627 0.999964181752224
1000.3101348082973 0.999950965172469
1000.3111351189324 0.9999343059432059
1000.3121354305675 0.9999152586299279
1000.3131357432031 0.99989463121447
1000.3141360568391 0.9998729321173511
1000.3151363714751 0.999851700999515
1000.3161366871118 0.9998344697182476
1000.3171370037486 0.9998255163146809
1000.3181373213856 0.9998276915540757
1000.3191376400231 0.9998414151613058
1000.320137959661 0.9998646277389941
1000.3211382802991 0.9998930499254856
1000.3221386019376 0.9999201569985589
1000.3231389245761 0.9999381424311413
1000.3241392482154 0.9999431920252492
1000.3251395728545 0.9999382915829684
1000.3261398984943 0.9999292894145428
1000.3271402251344 0.9999211349664923
1000.3281405527748 0.9999168808898689
1000.3291408814154 0.9999177893185639
1000.3301412110563 0.9999234804154573
1000.3311415416975 0.9999321515267279
1000.3321418733395 0.9999413650607633
1000.3331422059815 0.9999494397570192
1000.3341425396235 0.9999561016750835
1000.3351428742664 0.999961676471044
1000.3361432099094 0.9999663230895894
1000.3371435465527 0.9999702065752487
1000.3381438841965 0.9999738127239622
1000.3391442228403 0.99997766614833
1000.3401445624847 0.9999818323144841
1000.3411449031296 0.999985814972798
1000.3421452447743 0.9999889007376722
1000.3431455874198 0.9999905905566161
1000.3441459310656 0.9999907946395074
1000.3451462757116 0.9999897985683295
1000.3461466213582 0.9999881349002446
1000.3471469680048 0.999986362192514
1000.3481473156519 0.999984778773852
1000.3491476642994 0.9999832881959939
1000.3501480139473 0.9999816093695413
1000.3511483645954 0.9999796527039069
1000.3521487162437 0.9999775969124581
1000.3531490688927 0.9999754750065828
1000.3541494225418 0.9999725709586337
1000.3551497771913 0.9999672056534025
1000.3561501328413 0.9999576006842315
1000.3571504894916 0.999943761208827
1000.3581508471422 0.9999283043291317
1000.3591512057932 0.9999147115609982
1000.3601515654447 0.9999048858752204
1000.3611519260962 0.9998977803368932
1000.3621522877484 0.9998897896026274
1000.3631526504007 0.9998784932442998
1000.3641530140533 0.9998661943694087
1000.3651533787065 0.9998572839054531
1000.3661537443601 0.9998542149129623
1000.3671541110142 0.9998567930831944
1000.3681544786683 0.999863543950694
1000.3691548473229 0.9998736112205884
1000.3701552169779 0.9998870143804054
1000.3711555876331 0.9999024847292386
1000.372155959289 0.9999159118596002
1000.3731563319452 0.9999226509146668
1000.3741567056016 0.9999213659595922
1000.3751570802583 0.9999144580386269
1000.3761574559159 0.9999057271212679
1000.3771578325733 0.9998981277434599
1000.3781582102313 0.9998924286600676
1000.3791585888897 0.9998867985772842
1000.3801589685486 0.9998780706178365
1000.3811593492076 0.9998650325583741
1000.3821597308672 0.9998499407456668
1000.3831601135271 0.9998364301471271
1000.3841604971875 0.9998278986499246
1000.385160881848 0.9998268641030306
1000.3861612675092 0.9998341315541572
1000.3871616541704 0.9998478735589438
1000.3881620418323 0.9998621264615875
1000.3891624304945 0.9998664321126478
1000.3901628201571 0.9998562730056031
1000.39116321082 0.9998399973248875
1000.3921636024834 0.999826310225184
1000.3931639951471 0.99981959125778
1000.3941643888114 0.9998216581737549
1000.3951647834758 0.9998324590549313
1000.3961651791407 0.9998505206601569
1000.3971655758062 0.9998737025743101
1000.3981659734719 0.9998990640114772
1000.3991663721378 0.9999219257330952
1000.4001667718045 0.9999382600197825
1000.4011671724716 0.9999474623813958
1000.4021675741387 0.9999515038028586
1000.4031679768065 0.9999528951283654
1000.4041683804746 0.9999536476333934
1000.4051687851431 0.9999549292318958
1000.4061691908121 0.9999569115521385
1000.4071695974815 0.9999590068831552
1000.4081700051511 0.9999606347315101
1000.4091704138214 0.9999619190602353
1000.410170823492 0.999963412824637
1000.4111712341629 0.9999651493019679
1000.4121716458344 0.9999662878009095
1000.4131720585063 0.9999654716627897
1000.4141724721785 0.999961023959025
1000.4151728868513 0.9999511962776962
1000.4161733025242 0.9999355251637323
1000.4171737191976 0.9999161107095659
1000.4181741368717 0.999896696515529
1000.4191745555461 0.9998807937857134
1000.4201749752206 0.9998707694734448
1000.4211753958958 0.9998679300321128
1000.4221758175713 0.9998726643445233
1000.4231762402471 0.9998842820167084
1000.4241766639237 0.9999006816140573
1000.4251770886004 0.9999177629301141
1000.4261775142776 0.999929711043355
1000.4271779409554 0.9999318962544684
1000.4281783686337 0.9999238570949722
1000.4291787973121 0.9999085285749666
1000.4301792269913 0.9998904059426472
1000.4311796576706 0.9998742651658284
1000.4321800893504 0.9998630286258269
1000.4331805220305 0.9998551606200817
1000.4341809557111 0.9998445757863398
1000.4351813903924 0.9998268286192616
1000.436181826074 0.999805427844709
1000.437182262756 0.9997881102154715
1000.4381827004385 0.9997805415604778
1000.4391831391212 0.9997848651347402
1000.4401835788046 0.9997995019865763
1000.4411840194883 0.9998179630882644
1000.4421844611727 0.9998310427576969
1000.4431849038573 0.9998366816221507
1000.4441853475425 0.9998414772592021
1000.4451857922281 0.9998509544011797
1000.4461862379142 0.9998659005883124
1000.4471866846006 0.999884177741261
1000.4481871322876 0.9999026531066754
1000.449187580975 0.9999184444668432
1000.4501880306628 0.9999299918347254
1000.4511884813512 0.9999373096883567
1000.4521889330398 0.9999410086849582
1000.4531893857289 0.9999410752384609
1000.4541898394186 0.9999364690961026
1000.4551902941087 0.9999263696808478
1000.4561907497991 0.9999122376813891
1000.4571912064902 0.9998978135378291
1000.4581916641815 0.9998870296532982
1000.4591921228734 0.9998825771764636
1000.4601925825657 0.999885564149646
1000.4611930432583 0.9998954307634245
1000.4621935049518 0.9999099703245595
1000.4631939676453 0.9999255528496364
1000.4641944313394 0.9999382436007197
1000.4651948960341 0.9999458227112443
1000.4661953617292 0.9999483120696637
1000.4671958284248 0.9999464126210837
1000.4681962961208 0.9999406146576995
1000.4691967648173 0.9999319056475908
1000.4701972345143 0.9999222652262012
1000.4711977052117 0.9999138271453563
1000.4721981769096 0.9999074841819429
1000.473198649608 0.9999019164153501
1000.474199123307 0.9998937777165114
1000.4751995980062 0.999880295482317
1000.4762000737059 0.9998629141698503
1000.4772005504062 0.9998455427794573
1000.4782010281068 0.9998297247461245
1000.4792015068081 0.9998166401061359
1000.4802019865099 0.9998092257374731
1000.4812024672121 0.99980987231902
1000.4822029489148 0.9998189414898003
1000.4832034316181 0.9998352407941713
1000.4842039153217 0.9998569801750236
1000.4852044000259 0.9998815791109301
1000.4862048857303 0.999903476271682
1000.4872053724354 0.9999152234797662
1000.4882058601407 0.9999127831001796
1000.489206348847 0.999897804726112
1000.4902068385535 0.9998758911756855
1000.4912073292606 0.9998537422684296
1000.4922078209681 0.9998374813001433
1000.4932083136761 0.9998315365697995
1000.4942088073846 0.9998375896292987
1000.4952093020935 0.999854169074262
1000.496209797803 0.9998770284822429
1000.4972102945131 0.9999005739902935
1000.4982107922236 0.9999198534856257
1000.4992112909346 0.9999321766075013
1000.5002117906462 0.9999376975864314
1000.5012122913581 0.9999378581607514
1000.5022127930706 0.9999326509735679
1000.5032132957836 0.999919755378039
1000.5042137994972 0.999897892144876
1000.5052143042112 0.9998704200309274
1000.5062148099256 0.9998429038764841
1000.5072153166407 0.9998199608802177
1000.5082158243563 0.9998052108505855
1000.5092163330723 0.9998010508277618
1000.5102168427889 0.9998083325272583
1000.5112173535059 0.9998261333244488
1000.5122178652234 0.999851378527521
1000.5132183779415 0.9998788518229651
1000.5142188916603 0.9999025262006525
1000.5152194063793 0.999919240101995
1000.5162199220989 0.9999305821950748
1000.5172204388191 0.9999391029474712
1000.5182209565398 0.9999455014353715
1000.5192214752609 0.9999493968342014
1000.5202219949825 0.9999507870706524
1000.5212225157047 0.9999502647282359
1000.5222230374275 0.9999483084302012
1000.5232235601508 0.9999448881928026
1000.5242240838744 0.9999398063128404
1000.5252246085989 0.9999332523367568
