Atmospheric Species: CO
Metallicity: 10000
C/O_Ratio: 0.5
Wavelength[nm] Flux_variation
1899.9984810069718 1.0
1900.000381006403 0.9999999999137332
1900.0022810077337 0.9999999998267862
1900.0041810109644 0.9999999997391564
1900.0060810160955 0.9999999996508439
1900.0079810231266 0.9999999995618443
1900.0098810320576 0.9999999994721596
1900.011781042888 0.9999999993817872
1900.0136810556194 0.9999999992907247
1900.0155810702504 0.9999999991989705
1900.0174810867816 0.9999999991065222
1900.0193811052125 0.9999999990133775
1900.0212811255433 0.9999999989195321
1900.023181147774 0.999999998824983
1900.0250811719056 0.9999999987297259
1900.0269811979365 0.9999999986337559
1900.0288812258677 0.9999999985370672
1900.0307812556994 0.9999999984396541
1900.0326812874303 0.99999999834151
1900.0345813210613 0.9999999982426275
1900.0364813565927 0.9999999981429988
1900.0383813940234 0.9999999980426313
1900.0402814333552 0.9999999979414904
1900.0421814745864 0.9999999978395782
1900.044081517718 0.9999999977368828
1900.0459815627494 0.9999999976333956
1900.047881609681 0.9999999975291041
1900.0497816585128 0.9999999974239984
1900.0516817092443 0.9999999973180678
1900.053581761876 0.9999999972113007
1900.055481816408 0.9999999971036844
1900.0573818728399 0.9999999969952093
1900.0592819311714 0.9999999968858634
1900.0611819914034 0.9999999967756352
1900.0630820535353 0.9999999966645156
1900.064982117567 0.9999999965524938
1900.0668821834988 0.9999999964395615
1900.0687822513312 0.999999996325709
1900.0706823210633 0.999999996210931
1900.072582392695 0.9999999960952236
1900.074482466228 0.9999999959785757
1900.0763825416605 0.9999999958609876
1900.078282618993 0.9999999957424563
1900.0801826982256 0.9999999956229816
1900.0820827793584 0.9999999955025627
1900.083982862391 0.999999995381207
1900.085882947324 0.9999999952589084
1900.087783034157 0.9999999951356717
1900.0896831228897 0.9999999950114978
1900.091583213523 0.9999999948863846
1900.0934833060562 0.9999999947603304
1900.0953834004895 0.999999994633331
1900.097283496823 0.9999999945053919
1900.0991835950563 0.9999999943765393
1900.10108369519 0.9999999942468328
1900.102983797224 0.9999999941163741
1900.1048839011573 0.9999999939852655
1900.1067840069913 0.999999993853546
1900.1086841147253 0.9999999937211483
1900.1105842243594 0.999999993587927
1900.1124843358934 0.9999999934537174
1900.1143844493279 0.9999999933183865
1900.1162845646622 0.9999999931818386
1900.1181846818968 0.9999999930440368
1900.1200848010315 0.9999999929050352
1900.1219849220663 0.999999992765046
1900.1238850450015 0.9999999926244416
1900.1257851698363 0.9999999924835852
1900.1276852965714 0.9999999923425503
1900.1295854252066 0.9999999922009846
1900.131485555742 0.9999999920582932
1900.1333856881777 0.9999999919139382
1900.135285822513 0.9999999917675974
1900.137185958749 0.9999999916191327
1900.139086096885 0.9999999914684805
1900.1409862369208 0.9999999913156076
1900.1428863788572 0.9999999911604648
1900.1447865226937 0.9999999910029868
1900.1466866684302 0.9999999908431044
1900.1485868160669 0.9999999906807463
1900.1504869656035 0.9999999905158803
1900.1523871170407 0.9999999903483928
1900.1542872703776 0.9999999901782722
1900.156187425615 0.9999999900054913
1900.1580875827522 0.9999999898300479
1900.1599877417898 0.9999999896519577
1900.1618879027278 0.9999999894712637
1900.1637880655658 0.9999999892880291
1900.1656882303037 0.9999999891023436
1900.1675883969422 0.9999999889143251
1900.1694885654808 0.999999988724109
1900.171388735919 0.9999999885318529
1900.1732889082577 0.9999999883377191
1900.1751890824967 0.9999999881418694
1900.1770892586358 0.9999999879444443
1900.1789894366752 0.9999999877455384
1900.1808896166144 0.999999987545169
1900.1827897984542 0.9999999873432663
1900.184689982194 0.9999999871397107
1900.1865901678336 0.9999999869345034
1900.1884903553741 0.999999986728117
1900.1903905448146 0.9999999865218937
1900.1922907361552 0.9999999863180055
1900.194190929396 0.9999999861185955
1900.196091124537 0.9999999859244166
1900.1979913215782 0.9999999857342504
1900.1998915205195 0.9999999855456658
1900.2017917213611 0.9999999853563487
1900.2036919241027 0.9999999851648587
1900.205592128745 0.9999999849705554
1900.2074923352868 0.9999999847732144
1900.2093925437296 0.999999984572692
1900.2112927540722 0.999999984368775
1900.213192966315 0.9999999841611589
1900.2150931804579 0.999999983949459
1900.2169933965013 0.9999999837332413
1900.2188936144446 0.9999999835120399
1900.2207938342883 0.9999999832853899
1900.2226940560322 0.9999999830528179
1900.2245942796767 0.9999999828138625
1900.2264945052207 0.9999999825680855
1900.2283947326653 0.9999999823150434
1900.23029496201 0.9999999820542963
1900.232195193255 0.9999999817853903
1900.2340954264 0.9999999815078724
1900.2359956614453 0.9999999812212891
1900.2378958983913 0.999999980925196
1900.239796137237 0.9999999806191252
1900.241696377983 0.9999999803026927
1900.2435966206301 0.9999999799754232
1900.2454968651762 0.9999999796368768
1900.2473971116235 0.9999999792865863
1900.2492973599706 0.9999999789240541
1900.251197610218 0.9999999785487178
1900.2530978623654 0.9999999781599757
1900.2549981164138 0.9999999777571968
1900.256898372362 0.9999999773397135
1900.25879863021 0.9999999769068539
1900.260698889959 0.9999999764578967
1900.262599151608 0.9999999759920779
1900.2644994151574 0.9999999755085933
1900.2663996806068 0.9999999750065772
1900.2682999479562 0.9999999744851139
1900.270200217206 0.9999999739432461
1900.2721004883565 0.9999999733799769
1900.274000761407 0.9999999727943042
1900.2759010363577 0.9999999721851887
1900.2778013132095 0.9999999715515029
1900.2797015919602 0.9999999708919789
1900.281601872612 0.9999999702052038
1900.283502155164 0.9999999694896679
1900.2854024396163 0.999999968743832
1900.2873027259686 0.9999999679661263
1900.2892030142214 0.999999967154932
1900.291103304375 0.9999999663085959
1900.293003596428 0.9999999654253969
1900.2949038903816 0.9999999645035501
1900.2968041862352 0.9999999635412455
1900.2987044839895 0.9999999625366137
1900.3006047836443 0.9999999614877849
1900.3025050851993 0.9999999603928721
1900.3044053886542 0.9999999592500313
1900.3063056940098 0.9999999580574425
1900.308206001266 0.9999999568134041
1900.3101063104218 0.9999999555163073
1900.312006621478 0.999999954164755
1900.313906934435 0.9999999527575505
1900.3158072492918 0.9999999512938375
1900.3177075660494 0.999999949773108
1900.3196078847066 0.999999948196987
1900.3215082052643 0.9999999465630581
1900.3234085277227 0.9999999448739043
1900.3253088520814 0.9999999431315577
1900.3272091783404 0.9999999413389798
1900.3291095064997 0.9999999395001766
1900.3310098365591 0.9999999376203778
1900.3329101685192 0.9999999357061
1900.3348105023795 0.999999933765296
1900.33671083814 0.9999999318074317
1900.338611175801 0.999999929843501
1900.3405115153623 0.9999999278860326
1900.342411856824 0.999999925948964
1900.3443122001859 0.9999999240474311
1900.346212545448 0.9999999221973751
1900.3481128926107 0.9999999204150605
1900.3500132416737 0.9999999187161487
1900.351913592637 0.99999991711497
1900.3538139455006 0.9999999156236885
1900.3557143002645 0.9999999142528162
1900.3576146569287 0.9999999130140803
1900.3595150154933 0.9999999119273383
1900.3614153759586 0.9999999110289534
1900.3633157383242 0.9999999103735147
1900.3652161025902 0.9999999100186169
1900.3671164687564 0.9999999099959659
1900.369016836823 0.9999999102919238
1900.37091720679 0.9999999108560329
1900.372817578657 0.9999999116292816
1900.374717952425 0.999999912566809
1900.376618328093 0.9999999136425495
1900.3785187056617 0.9999999148421619
1900.3804190851304 0.9999999161550654
1900.3823194664997 0.9999999175698034
1900.3842198497691 0.9999999190727721
1900.386120234939 0.9999999206486153
1900.3880206220097 0.9999999222811331
1900.3899210109803 0.9999999239540447
1900.3918214018513 0.9999999256516897
1900.3937217946227 0.9999999273595318
1900.3956221892947 0.999999929064337
1900.3975225858671 0.9999999307543428
1900.3994229843397 0.9999999324194173
1900.401323384713 0.9999999340508803
1900.4032237869862 0.9999999356415565
1900.4051241911604 0.9999999371856447
1900.4070245972348 0.9999999386785695
1900.4089250052098 0.9999999401168967
1900.4108254150844 0.9999999414981807
1900.4127258268602 0.9999999428193629
1900.4146262405359 0.999999944082829
1900.4165266561124 0.9999999452866511
1900.4184270735893 0.9999999464312426
1900.4203274929666 0.999999947517453
1900.4222279142446 0.999999948546594
1900.4241283374222 0.999999949519861
1900.4260287625007 0.9999999504389389
1900.4279291894795 0.9999999513055724
1900.4298296183588 0.9999999521217336
1900.4317300491382 0.9999999528894974
1900.4336304818187 0.9999999536111601
1900.4355309163998 0.9999999542891086
1900.4374313528806 0.9999999549258212
1900.4393317912616 0.9999999555238421
1900.441232231544 0.9999999560857573
1900.4431326737263 0.9999999566141892
1900.445033117809 0.9999999571117693
1900.4469335637923 0.9999999575810797
1900.4488340116757 0.9999999580246327
1900.45073446146 0.9999999584447741
1900.452634913145 0.9999999588436119
1900.4545353667297 0.9999999592229802
1900.4564358222153 0.9999999595845068
1900.4583362796013 0.9999999599300204
1900.460236738888 0.9999999602624092
1900.4621372000747 0.9999999605866647
1900.4640376631621 0.9999999609099812
1900.46593812815 0.9999999612397444
1900.4678385950383 0.9999999615800077
1900.4697390638269 0.9999999619294219
1900.4716395345163 0.9999999622827149
1900.4735400071058 0.9999999626342322
1900.475440481596 0.9999999629804027
1900.4773409579866 0.9999999633199633
1900.4792414362778 0.9999999636529296
1900.4811419164694 0.9999999639796529
1900.4830423985613 0.9999999643003468
1900.484942882554 0.9999999646149309
1900.486843368447 0.9999999649231064
1900.4887438562407 0.9999999652244136
1900.4906443459342 0.9999999655183273
1900.4925448375293 0.9999999658043062
1900.4944453310243 0.9999999660818467
1900.4963458264197 0.9999999663504943
1900.4982463237159 0.9999999666098685
1900.5001468229125 0.9999999668596418
1900.5020473240093 0.9999999670996326
1900.5039478270066 0.9999999673296718
1900.5058483319046 0.9999999675496865
1900.5077488387033 0.9999999677596643
1900.5096493474023 0.9999999679596573
1900.5115498580017 0.9999999681496671
1900.5134503705021 0.9999999683300511
1900.5153508849023 0.9999999685008772
1900.5172514012036 0.9999999686623557
1900.519151919405 0.9999999688147172
1900.5210524395072 0.9999999689582205
1900.5229529615094 0.9999999690931252
1900.5248534854127 0.9999999692197085
1900.5267540112163 0.9999999693382473
1900.5286545389204 0.999999969449027
1900.5305550685252 0.9999999695523242
1900.5324556000307 0.9999999696484205
1900.5343561334362 0.9999999697375858
1900.536256668743 0.9999999698200912
1900.5381572059498 0.9999999698961961
1900.540057745057 0.9999999699661543
1900.541958286065 0.9999999700302099
1900.543858828974 0.9999999700885932
1900.5457593737829 0.9999999701415356
1900.5476599204922 0.9999999701892454
1900.5495604691025 0.9999999702319262
1900.551461019613 0.9999999702697696
1900.5533615720244 0.9999999703029636
1900.5552621263362 0.9999999703316941
1900.5571626825486 0.9999999703561621
1900.5590632406613 0.9999999703765972
1900.5609638006747 0.9999999703932242
1900.562864362589 0.9999999704062423
1900.5647649264035 0.9999999704157747
1900.5666654921185 0.9999999704218914
1900.5685660597342 0.9999999704246455
1900.5704666292502 0.9999999704241151
1900.5723672006673 0.9999999704203977
1900.574267773985 0.999999970413603
1900.5761683492024 0.9999999704038404
1900.5780689263213 0.9999999703912169
1900.5799695053404 0.999999970375832
1900.5818700862608 0.999999970357777
1900.5837706690809 0.9999999703371402
1900.5856712538014 0.9999999703140038
1900.587571840423 0.9999999702884464
1900.5894724289449 0.9999999702605463
1900.5913730193674 0.9999999702303705
1900.593273611691 0.999999970197991
1900.5951742059142 0.999999970163474
1900.597074802039 0.9999999701268814
1900.5989754000636 0.9999999700882791
1900.6008759999897 0.999999970047723
1900.6027766018155 0.9999999700052681
1900.604677205543 0.9999999699609708
1900.6065778111702 0.9999999699148782
1900.608478418698 0.9999999698670411
1900.610379028127 0.9999999698175038
1900.6122796394563 0.9999999697663104
1900.614180252686 0.9999999697135044
1900.6160808678167 0.9999999696591195
1900.6179814848479 0.9999999696031882
1900.6198821037794 0.9999999695457317
1900.6217827246119 0.9999999694867683
1900.6236833473447 0.9999999694263108
1900.6255839719784 0.9999999693643717
1900.6274845985124 0.9999999693009582
1900.6293852269469 0.9999999692360807
1900.6312858572826 0.9999999691697449
1900.6331864895187 0.9999999691019539
1900.6350871236557 0.9999999690327102
1900.636987759693 0.9999999689620137
1900.638888397631 0.9999999688898615
1900.6407890374699 0.9999999688162517
1900.6426896792093 0.99999996874118
1900.6445903228487 0.9999999686646418
1900.6464909683893 0.9999999685866295
1900.6483916158306 0.9999999685071375
1900.6502922651723 0.9999999684261565
1900.6521929164153 0.9999999683436791
1900.6540935695584 0.9999999682596954
1900.6559942246022 0.9999999681741941
1900.6578948815466 0.9999999680871635
1900.6597955403915 0.9999999679985916
1900.6616962011378 0.9999999679084658
1900.6635968637843 0.99999996781677
1900.6654975283316 0.999999967723492
1900.6673981947793 0.9999999676286155
1900.6692988631276 0.9999999675321251
1900.671199533377 0.999999967434005
1900.6731002055265 0.9999999673342403
1900.6750008795768 0.9999999672328155
1900.676901555528 0.9999999671297188
1900.6788022333803 0.9999999670249374
1900.6807029131326 0.9999999669184622
1900.6826035947859 0.9999999668103013
1900.6845042783395 0.9999999667004261
1900.686404963794 0.9999999665888517
1900.6883056511492 0.9999999664755862
1900.6902063404052 0.999999966360644
1900.692107031562 0.9999999662440479
1900.6940077246195 0.9999999661258272
1900.6959084195773 0.999999966006022
1900.6978091164358 0.9999999658846824
1900.6997098151955 0.9999999657618645
1900.7016105158552 0.9999999656376338
1900.703511218416 0.9999999655120623
1900.7054119228774 0.9999999653852258
1900.7073126292398 0.9999999652571948
1900.7092133375024 0.9999999651280325
1900.711114047666 0.999999964997775
1900.7130147597309 0.999999964866427
1900.7149154736956 0.9999999647339513
1900.7168161895615 0.9999999646002857
1900.7187169073277 0.9999999644654225
1900.7206176269951 0.9999999643295652
1900.7225183485632 0.9999999641933096
1900.7244190720317 0.999999964057633
1900.7263197974012 0.9999999639235011
1900.728220524671 0.9999999637912588
1900.7301212538418 0.999999963660349
1900.7320219849134 0.9999999635296584
1900.7339227178857 0.9999999633981262
1900.7358234527587 0.9999999632650964
1900.7377241895326 0.9999999631302907
1900.739624928207 0.9999999629936204
1900.7415256687818 0.9999999628550431
1900.743426411258 0.9999999627144945
1900.7453271556344 0.9999999625718744
1900.747227901912 0.9999999624270486
1900.7491286500904 0.9999999622798781
1900.7510294001693 0.9999999621302454
1900.7529301521488 0.9999999619779705
1900.7548309060296 0.9999999618229571
1900.7567316618108 0.9999999616651088
1900.7586324194926 0.999999961504348
1900.7605331790753 0.9999999613406271
1900.7624339405588 0.9999999611739235
1900.7643347039432 0.9999999610042392
1900.7662354692281 0.9999999608316026
1900.7681362364137 0.9999999606560606
1900.7700370055004 0.9999999604776768
1900.7719377764877 0.9999999602965096
1900.773838549376 0.9999999601126517
1900.7757393241648 0.9999999599261342
1900.7776401008543 0.9999999597369843
1900.7795408794452 0.9999999595452168
1900.781441659936 0.9999999593508845
1900.783342442328 0.9999999591541546
1900.7852432266209 0.9999999589553493
1900.7871440128142 0.9999999587549299
1900.7890448009086 0.9999999585534876
1900.790945590904 0.9999999583517999
1900.7928463827998 0.9999999581506763
1900.7947471765965 0.999999957950465
1900.796647972294 0.9999999577505891
1900.7985487698922 0.9999999575497283
1900.8004495693913 0.9999999573464764
1900.8023503707914 0.9999999571398425
1900.8042511740919 0.9999999569292654
1900.8061519792934 0.9999999567144241
1900.8080527863956 0.9999999564950531
1900.8099535953988 0.999999956270881
1900.8118544063027 0.9999999560416095
1900.8137552191074 0.999999955806983
1900.815656033813 0.999999955566586
1900.8175568504194 0.9999999553201664
1900.8194576689266 0.9999999550674518
1900.8213584893347 0.9999999548082082
1900.8232593116434 0.9999999545422642
1900.8251601358527 0.9999999542694676
1900.8270609619635 0.9999999539897578
1900.828961789975 0.9999999537031283
1900.830862619887 0.9999999534096373
1900.8327634516997 0.9999999531094073
1900.8346642854137 0.9999999528026063
1900.8365651210283 0.9999999524894287
1900.838465958544 0.9999999521701547
1900.8403667979603 0.9999999518450525
1900.8422676392775 0.9999999515141405
1900.8441684824954 0.9999999511775511
1900.846069327614 0.9999999508352596
1900.8479701746337 0.9999999504872872
1900.8498710235547 0.9999999501340959
1900.8517718743758 0.9999999497772536
1900.853672727098 0.9999999494199416
1900.8555735817213 0.9999999490663803
1900.857474438245 0.9999999487199039
1900.8593752966701 0.9999999483809532
1900.8612761569957 0.9999999480469758
1900.8631770192221 0.9999999477142866
1900.8650778833494 0.9999999473800621
1900.8669787493775 0.9999999470429938
1900.868879617307 0.9999999467028304
1900.8707804871362 0.9999999463597596
1900.872681358867 0.9999999460141556
1900.874582232499 0.9999999456668138
1900.8764831080316 0.9999999453193811
1900.878383985465 0.9999999449744583
1900.8802848647993 0.999999944634779
1900.8821857460346 0.9999999443017191
1900.8840866291705 0.9999999439744678
1900.8859875142077 0.9999999436507195
1900.8878884011453 0.9999999433282153
1900.889789289984 0.9999999430057717
1900.8916901807236 0.9999999426836874
1900.8935910733637 0.999999942361935
1900.8954919679054 0.9999999420418486
1900.897392864348 0.9999999417245321
1900.8992937626913 0.9999999414111365
1900.9011946629353 0.9999999411028356
1900.9030955650805 0.9999999408007983
1900.9049964691262 0.9999999405063382
1900.9068973750734 0.9999999402206285
1900.9087982829212 0.9999999399448282
1900.9106991926699 0.9999999396799932
1900.9126001043194 0.9999999394270292
1900.9145010178697 0.9999999391867105
1900.9164019333211 0.9999999389598427
1900.9183028506736 0.9999999387476605
1900.9202037699272 0.9999999385524673
1900.922104691081 0.9999999383781946
1900.9240056141361 0.9999999382303936
1900.925906539092 0.9999999381139372
1900.927807465949 0.9999999380306634
1900.929708394707 0.9999999379781407
1900.9316093253658 0.999999937951089
1900.9335102579255 0.9999999379440346
1900.935411192386 0.9999999379529962
1900.9373121287476 0.9999999379756151
1900.9392130670103 0.9999999380104869
1900.9411140071738 0.9999999380565439
1900.9430149492382 0.9999999381126699
1900.9449158932034 0.9999999381775819
1900.94681683907 0.9999999382497871
1900.948717786837 0.9999999383276728
1900.9506187365052 0.999999938495794
1900.9525196880745 0.9999999386668355
1900.9544206415444 0.9999999388391013
1900.9563215969154 0.9999999390109477
1900.958222554187 0.9999999391808282
1900.9601235133605 0.9999999393472803
1900.9620244744342 0.9999999395086271
1900.963925437409 0.9999999396643382
1900.9658264022853 0.999999939812967
1900.9677273690618 0.999999939953526
1900.9696283377396 0.999999940085142
1900.9715293083184 0.9999999402070522
1900.9734302807985 0.9999999403185927
1900.975331255179 0.9999999404191883
1900.977232231461 0.9999999405083485
1900.9791332096431 0.9999999405856542
1900.9810341897269 0.9999999406507519
1900.9829351717112 0.9999999407033421
1900.984836155597 0.9999999407431668
1900.9867371413834 0.9999999407700115
1900.9886381290712 0.9999999407836742
1900.9905391186596 0.9999999407840162
1900.9924401101491 0.9999999407708831
1900.9943411035395 0.9999999407441398
1900.9962420988313 0.9999999407036508
1900.998143096024 0.9999999406492893
1901.0000440951176 0.9999999405809167
1901.0019450961122 0.9999999404983847
