Atmospheric Species: CO
Metallicity: 10
C/O_Ratio: 1.5
Wavelength[nm] Flux_variation
1699.999720594985 1.0
1700.0014205955558 0.999999999460757
1700.003120597826 0.9999999989214202
1700.0048206017968 0.9999999983819753
1700.0065206074676 0.9999999978424022
1700.0082206148381 0.9999999973026716
1700.0099206239088 0.9999999967627403
1700.0116206346793 0.9999999962225444
1700.0133206471498 0.9999999956819838
1700.0150206613202 0.9999999951408952
1700.016720677191 0.9999999945989829
1700.0184206947615 0.9999999940556173
1700.020120714032 0.9999999935092073
1700.0218207350024 0.9999999929556219
1700.0235207576732 0.999999992385773
1700.025220782044 0.9999999917859523
1700.0269208081147 0.999999991148863
1700.0286208358855 0.9999999904950645
1700.0303208653559 0.9999999898783063
1700.032020896527 0.9999999893470682
1700.0337209293978 0.9999999888958032
1700.0354209639686 0.9999999884709299
1700.0371210002395 0.9999999880229805
1700.0388210382105 0.9999999875376558
1700.0405210778813 0.9999999870247998
1700.0422211192524 0.9999999864977038
1700.0439211623234 0.9999999859644464
1700.0456212070944 0.9999999854285458
1700.0473212535655 0.9999999848913448
1700.0490213017365 0.9999999843533871
1700.050721351608 0.9999999838149367
1700.0524214031793 0.9999999832761431
1700.0541214564507 0.9999999827370983
1700.0558215114222 0.9999999821978627
1700.0575215680938 0.9999999816584769
1700.0592216264656 0.999999981118969
1700.0609216865369 0.9999999805793586
1700.0626217483084 0.9999999800396601
1700.0643218117798 0.9999999794998838
1700.0660218769517 0.9999999789600375
1700.0677219438237 0.9999999784201266
1700.0694220123955 0.9999999778801554
1700.0711220826677 0.9999999773401265
1700.0728221546399 0.9999999768000423
1700.0745222283117 0.999999976259904
1700.0762223036838 0.9999999757197124
1700.0779223807563 0.999999975179468
1700.0796224595285 0.9999999746391706
1700.081322540001 0.9999999740988195
1700.0830226221735 0.999999973558414
1700.084722706046 0.999999973017953
1700.0864227916188 0.9999999724774351
1700.0881228788917 0.9999999719368587
1700.0898229678646 0.9999999713962229
1700.0915230585374 0.9999999708555255
1700.0932231509105 0.9999999703147642
1700.0949232449836 0.999999969773936
1700.0966233407569 0.9999999692330372
1700.0983234382302 0.9999999686920643
1700.1000235374036 0.9999999681510132
1700.101723638277 0.9999999676098803
1700.1034237408508 0.9999999670686608
1700.1051238451244 0.9999999665273492
1700.106823951098 0.9999999659859399
1700.108524058772 0.9999999654444258
1700.1102241681463 0.9999999649027995
1700.1119242792201 0.9999999643610527
1700.1136243919946 0.999999963819175
1700.1153245064686 0.9999999632771558
1700.1170246226434 0.9999999627349819
1700.118724740518 0.9999999621926384
1700.1204248600927 0.9999999616501077
1700.1221249813675 0.9999999611073693
1700.1238251043426 0.9999999605643987
1700.1255252290177 0.9999999600211666
1700.1272253553927 0.999999959477638
1700.1289254834683 0.9999999589337697
1700.1306256132436 0.9999999583895083
1700.1323257447189 0.9999999578447877
1700.134025877895 0.9999999572995234
1700.1357260127709 0.9999999567536068
1700.137426149347 0.999999956206897
1700.1391262876232 0.9999999556592054
1700.1408264275992 0.9999999551102754
1700.1425265692758 0.9999999545597523
1700.1442267126522 0.9999999540071286
1700.1459268577291 0.9999999534516586
1700.147627004506 0.999999952892205
1700.149327152983 0.9999999523268983
1700.1510273031602 0.9999999517522398
1700.1527274550374 0.9999999511602877
1700.154427608615 0.9999999505307947
1700.1561277638923 0.9999999498158968
1700.1578279208704 0.9999999489294266
1700.1595280795482 0.9999999477839859
1700.1612282399262 0.9999999464097457
1700.1629284020044 0.9999999450695527
1700.1646285657832 0.9999999441617315
1700.1663287312617 0.9999999438981009
1700.1680288984403 0.9999999441011668
1700.169729067319 0.9999999443805526
1700.171429237898 0.9999999444553132
1700.1731294101774 0.9999999442716706
1700.174829584157 0.9999999439039325
1700.1765297598363 0.9999999434366776
1700.1782299372162 0.9999999429196822
1700.1799301162962 0.9999999423702862
1700.1816302970763 0.999999941784434
1700.1833304795568 0.9999999411491165
1700.1850306637373 0.9999999404625893
1700.186730849618 0.9999999397527197
1700.1884310371988 0.9999999390596493
1700.1901312264797 0.9999999383742738
1700.1918314174611 0.9999999375987386
1700.1935316101426 0.9999999366128536
1700.1952318045244 0.9999999354270114
1700.196932000606 0.9999999342751674
1700.1986321983882 0.9999999334922172
1700.2003323978704 0.9999999332383164
1700.202032599053 0.9999999333558451
1700.2037328019355 0.999999933523568
1700.2054330065184 0.9999999335123245
1700.2071332128014 0.9999999332789228
1700.208833420785 0.999999932887449
1700.210533630468 0.9999999324112133
1700.2122338418515 0.99999993189432
1700.2139340549356 0.9999999313560912
1700.2156342697199 0.9999999308025961
1700.2173344862042 0.9999999302323542
1700.2190347043886 0.9999999296375327
1700.2207349242735 0.9999999290084515
1700.2224351458585 0.9999999283485607
1700.2241353691436 0.9999999276898699
1700.2258355941292 0.9999999270784982
1700.2275358208146 0.9999999265300844
1700.2292360492004 0.9999999260102991
1700.2309362792867 0.9999999254688489
1700.232636511073 0.99999992487975
1700.2343367445594 0.9999999242478326
1700.236036979746 0.9999999235947169
1700.2377372166331 0.999999922942393
1700.2394374552205 0.9999999222987929
1700.241137695508 0.9999999216532853
1700.2428379374958 0.9999999209868937
1700.2445381811838 0.9999999202854951
1700.246238426572 0.9999999195431007
1700.2479386736607 0.9999999187566335
1700.2496389224493 0.9999999179206771
1700.2513391729383 0.9999999170253296
1700.2530394251273 0.9999999160554925
1700.2547396790171 0.9999999149896207
1700.2564399346068 0.9999999137972169
1700.2581401918967 0.999999912433826
1700.2598404508867 0.9999999108340625
1700.2615407115777 0.9999999088957843
1700.263240973968 0.9999999064505971
1700.2649412380592 0.9999999031894964
1700.2666415038505 0.9999998984477101
1700.2683417713422 0.9999998905865701
1700.2700420405338 0.9999998755705028
1700.2717423114264 0.9999998450746597
1700.2734425840185 0.9999997874543504
1700.275142858311 0.9999996975980553
1700.276843134304 0.9999995935747695
1700.2785434119971 0.9999995192953703
1700.2802436913905 0.9999995158252277
1700.2819439724844 0.9999995850664696
1700.2836442552784 0.9999996878629883
1700.2853445397727 0.9999997789493031
1700.2870448259675 0.9999998378792584
1700.2887451138624 0.9999998686828656
1700.2904454034576 0.9999998831794635
1700.2921456947531 0.999999890148388
1700.2938459877491 0.9999998938830136
1700.2955462824452 0.9999998961053993
1700.2972465788416 0.9999998974989199
1700.2989468769385 0.999999898377452
1700.3006471767358 0.9999998989120826
1700.3023474782328 0.9999998992068349
1700.3040477814307 0.9999998993282961
1700.3057480863285 0.9999998993218056
1700.3074483929267 0.9999998992185066
1700.3091487012252 0.9999998990406184
1700.3108490112243 0.9999998988042865
1700.3125493229234 0.9999998985214933
1700.3142496363225 0.9999998982012867
1700.3159499514227 0.9999998978506083
1700.3176502682227 0.9999998974748525
1700.3193505867227 0.9999998970782673
1700.3210509069238 0.9999998966642328
1700.3227512288247 0.9999998962354657
1700.324451552426 0.9999998957941728
1700.3261518777274 0.999999895342156
1700.3278522047294 0.9999998948809067
1700.3295525334318 0.9999998944116565
1700.3312528638346 0.9999998939354394
1700.3329531959375 0.9999998934531217
1700.334653529741 0.9999998929654357
1700.3363538652445 0.9999998924730052
1700.3380542024483 0.9999998919763509
1700.3397545413527 0.9999998914759269
1700.3414548819576 0.999999890972119
1700.3431552242623 0.9999998904652524
1700.3448555682678 0.9999998899556046
1700.3465559139734 0.9999998894434106
1700.3482562613794 0.9999998889288828
1700.3499566104858 0.9999998884121275
1700.3516569612923 0.9999998878932864
1700.3533573137995 0.9999998873724192
1700.355057668007 0.9999998868495479
1700.3567580239148 0.9999998863246241
1700.358458381523 0.9999998857975114
1700.360158740831 0.9999998852679378
1700.3618591018403 0.9999998847354126
1700.3635594645496 0.9999998841990273
1700.365259828959 0.9999998836568949
1700.366960195069 0.999999883104469
1700.3686605628795 0.9999998825303996
1700.37036093239 0.9999998819102077
1700.372061303601 0.9999998812061458
1700.3737616765122 0.9999998803900209
1700.3754620511243 0.9999998794853783
1700.3771624274364 0.9999998785756451
1700.378862805449 0.9999998777453949
1700.380563185162 0.9999998770448392
1700.3822635665754 0.9999998765355416
1700.383963949689 0.9999998762733517
1700.385664334503 0.9999998761922986
1700.3873647210175 0.9999998761118919
1700.3890651092324 0.9999998758972144
1700.3907654991474 0.9999998755381386
1700.392465890763 0.9999998750866286
1700.3941662840791 0.9999998745919546
1700.3958666790954 0.9999998740789983
1700.3975670758123 0.9999998735574803
1700.3992674742296 0.9999998730311489
1700.400967874347 0.9999998725016899
1700.402668276165 0.999999871970031
1700.4043686796833 0.9999998714367476
1700.4060690849024 0.9999998709022191
1700.4077694918215 0.9999998703667052
1700.409469900441 0.9999998698303877
1700.4111703107612 0.9999998692933948
1700.4128707227815 0.999999868755817
1700.4145711365024 0.999999868217716
1700.4162715519237 0.9999998676791287
1700.4179719690453 0.9999998671400668
1700.4196723878674 0.9999998666005097
1700.4213728083898 0.9999998660603715
1700.423073230613 0.9999998655194012
1700.4247736545362 0.9999998649769134
1700.42647408016 0.9999998644313717
1700.4281745074843 0.9999998638804279
1700.429874936509 0.999999863322717
1700.431575367234 0.9999998627613171
1700.4332757996597 0.9999998622048275
1700.4349762337856 0.9999998616617055
1700.436676669612 0.999999861132268
1700.4383771071389 0.999999860608202
1700.4400775463664 0.9999998600801765
1700.4417779872938 0.9999998595437992
1700.4434784299222 0.9999998589983341
1700.4451788742506 0.9999998584414649
1700.4468793202798 0.9999998578646794
1700.448579768009 0.9999998572536303
1700.450280217439 0.9999998566005086
1700.4519806685694 0.9999998559268488
1700.4536811214002 0.999999855289884
1700.4553815759316 0.9999998547445496
1700.4570820321633 0.9999998542915449
1700.4587824900957 0.999999853876478
1700.4604829497282 0.9999998534413639
1700.4621834110615 0.9999998529638028
1700.4638838740948 0.9999998524515578
1700.4655843388289 0.9999998519197808
1700.4672848052635 0.9999998513786248
1700.4689852733984 0.9999998508326299
1700.4706857432336 0.9999998502834054
1700.4723862147698 0.999999849731396
1700.4740866880059 0.9999998491765573
1700.475787162943 0.9999998486185665
1700.4774876395804 0.9999998480568808
1700.479188117918 0.9999998474907192
1700.4808885979564 0.9999998469189817
1700.4825890796951 0.9999998463401139
1700.4842895631343 0.9999998457519017
1700.4859900482743 0.9999998451511091
1700.4876905351143 0.9999998445329498
1700.489391023655 0.9999998438899803
1700.4910915138962 0.9999998432100413
1700.492792005838 0.9999998424711903
1700.4944924994802 0.9999998416264004
1700.4961929948229 0.9999998405553258
1700.4978934918663 0.9999998389407964
1700.4995939906096 0.999999836080758
1700.5012944910538 0.9999998309370677
1700.5029949931984 0.999999823064755
1700.5046954970437 0.9999998142921928
1700.5063960025893 0.9999998088374189
1700.5080965098355 0.9999998099590331
1700.5097970187821 0.9999998165013696
1700.5114975294293 0.9999998241766542
1700.5131980417773 0.9999998297044705
1700.5148985558253 0.999999832539415
1700.516599071574 0.9999998336004099
1700.5182995890234 0.9999998338107325
1700.5200001081735 0.999999833666382
1700.5217006290236 0.9999998333682982
1700.5234011515745 0.999999832991898
1700.5251016758257 0.9999998325689733
1700.5268022017776 0.9999998321157755
1700.52850272943 0.9999998316418424
1700.530203258783 0.9999998311531558
1700.5319037898366 0.9999998306537045
1700.5336043225902 0.9999998301461983
1700.5353048570453 0.999999829632539
1700.5370053932002 0.9999998291140967
1700.5387059310556 0.999999828591877
1700.540406470612 0.9999998280666319
1700.5421070118687 0.9999998275389339
1700.543807554826 0.999999827009224
1700.545508099484 0.9999998264778475
1700.547208645842 0.999999825945077
1700.5489091939007 0.9999998254111304
1700.55060974366 0.9999998248761836
1700.55231029512 0.9999998243403798
1700.5540108482805 0.9999998238038362
1700.5557114031415 0.9999998232666498
1700.5574119597031 0.9999998227289013
1700.5591125179653 0.9999998221906583
1700.560813077928 0.9999998216519771
1700.5625136395913 0.9999998211129069
1700.5642142029553 0.9999998205734864
1700.5659147680199 0.9999998200337513
1700.567615334785 0.9999998194937312
1700.5693159032505 0.9999998189534511
1700.5710164734166 0.999999818412933
1700.5727170452838 0.9999998178721966
1700.5744176188507 0.9999998173312549
1700.5761181941186 0.9999998167901227
1700.5778187710873 0.9999998162488117
1700.579519349756 0.9999998157073307
1700.5812199301258 0.9999998151656875
1700.5829205121959 0.9999998146238874
1700.5846210959667 0.9999998140819345
1700.586321681438 0.9999998135398301
1700.5880222686098 0.9999998129975729
1700.5897228574827 0.999999812455158
1700.5914234480554 0.999999811912575
1700.593124040329 0.9999998113698035
1700.5948246343032 0.9999998108268002
1700.596525229978 0.9999998102834566
1700.5982258273534 0.9999998097394872
1700.5999264264299 0.9999998091942359
1700.6016270272064 0.999999808646639
1700.6033276296837 0.9999998080959757
1700.6050282338615 0.9999998075435721
1700.60672883974 0.9999998069935262
1700.6084294473192 0.9999998064499158
1700.6101300565986 0.9999998059126842
1700.611830667579 0.9999998053776944
1700.6135312802598 0.9999998048408753
1700.615231894641 0.9999998043009429
1700.6169325107235 0.9999998037586242
1700.618633128506 0.9999998032149618
1700.6203337479897 0.9999998026705839
1700.6220343691734 0.9999998021257487
1700.6237349920582 0.9999998015805371
1700.6254356166435 0.9999998010349623
1700.6271362429293 0.9999998004890082
1700.6288368709156 0.9999997999426411
1700.6305375006027 0.9999997993958114
1700.63223813199 0.9999997988484517
1700.633938765079 0.9999997983004727
1700.6356393998678 0.9999997977517561
1700.6373400363575 0.9999997972021444
1700.6390406745477 0.9999997966514244
1700.6407413144386 0.9999997960993032
1700.6424419560303 0.9999997955453671
1700.6441425993223 0.9999997949890158
1700.6458432443155 0.9999997944293556
1700.6475438910088 0.9999997938649713
1700.6492445394028 0.9999997932934104
1700.6509451894979 0.9999997927096217
1700.6526458412934 0.9999997921011906
1700.6543464947895 0.9999997914367913
1700.656047149986 0.9999997906500019
1700.6577478068834 0.9999997896451879
1700.6594484654815 0.9999997883753098
1700.6611491257802 0.9999997869803814
1700.6628497877796 0.9999997858212047
1700.6645504514797 0.999999785245276
1700.6662511168802 0.9999997852681989
1700.6679517839818 0.999999785558313
1700.6696524527838 0.9999997857446901
1700.6713531232863 0.99999978566871
1700.6730537954897 0.9999997853676311
1700.6747544693937 0.9999997849368466
1700.6764551449987 0.9999997844456375
1700.678155822304 0.9999997839274374
1700.67985650131 0.9999997833955429
1700.6815571820168 0.9999997828552253
1700.6832578644241 0.9999997823089536
1700.6849585485324 0.9999997817580254
1700.6866592343413 0.9999997812031814
1700.6883599218506 0.9999997806448333
1700.690060611061 0.9999997800831678
1700.6917613019718 0.9999997795182118
1700.693461994583 0.9999997789498649
1700.6951626888956 0.9999997783779173
1700.6968633849087 0.9999997778020422
1700.6985640826222 0.9999997772217752
1700.7002647820368 0.999999776636455
1700.7019654831518 0.9999997760451808
1700.7036661859677 0.9999997754468991
1700.7053668904841 0.9999997748407432
1700.7070675967013 0.9999997742263081
1700.7087683046193 0.9999997736031963
1700.710469014238 0.9999997729699049
1700.7121697255573 0.9999997723232448
1700.7138704385775 0.9999997716589162
1700.715571153298 0.9999997709721852
1700.7172718697195 0.9999997702576551
1700.7189725878418 0.9999997695082405
1700.7206733076644 0.999999768713822
1700.7223740291881 0.9999997678595784
1700.7240747524124 0.9999997669239464
1700.7257754773375 0.9999997658759757
1700.7274762039633 0.9999997646677887
1700.72917693229 0.9999997632068823
1700.730877662317 0.999999761281986
1700.732578394045 0.9999997584497443
1700.7342791274737 0.9999997540073069
1700.735979862603 0.9999997472514248
1700.7376805994334 0.9999997377730981
1700.7393813379642 0.9999997247516123
1700.7410820781959 0.999999705355541
1700.7427828201282 0.9999996759159987
1700.7444835637614 0.9999996385127652
1700.7461843090953 0.9999996063419258
1700.74788505613 0.9999995969563841
1700.749585804865 0.9999996169526925
1700.7512865553015 0.9999996554831996
1700.7529873074382 0.9999996943726652
1700.7546880612758 0.9999997221329889
1700.7563888168143 0.9999997377401725
1700.7580895740532 0.9999997453260752
1700.7597903329931 0.999999748889863
1700.7614910936338 0.9999997506638977
1700.7631918559753 0.9999997516020398
1700.7648926200177 0.9999997520794884
1700.7665933857602 0.9999997522653269
1700.7682941532041 0.9999997522662133
1700.7699949223486 0.9999997521649567
1700.7716956931938 0.9999997520111102
1700.7733964657398 0.9999997518134652
1700.7750972399867 0.9999997515612913
1700.7767980159342 0.9999997512515919
1700.7784987935825 0.9999997508941638
1700.7801995729317 0.9999997505020964
1700.7819003539817 0.9999997500852584
1700.7836011367324 0.9999997496497871
1700.7853019211836 0.9999997491995553
1700.787002707336 0.9999997487372577
1700.7887034951889 0.9999997482649278
1700.790404284743 0.9999997477841603
1700.7921050759976 0.9999997472962316
1700.7938058689529 0.9999997468021802
1700.795506663609 0.9999997463028525
1700.797207459966 0.9999997457989491
1700.798908258024 0.9999997452910492
1700.8006090577826 0.999999744779635
1700.8023098592419 0.9999997442651135
1700.804010662402 0.9999997437478364
1700.805711467263 0.99999974322811
1700.8074122738249 0.9999997427061982
1700.8091130820876 0.9999997421823106
1700.810813892051 0.9999997416566047
1700.8125147037154 0.9999997411292029
1700.8142155170804 0.999999740600222
1700.8159163321461 0.9999997400697156
1700.8176171489126 0.9999997395377576
1700.8193179673801 0.9999997390043701
1700.8210187875484 0.9999997384695296
1700.8227196094176 0.9999997379331369
1700.8244204329876 0.9999997373949786
1700.8261212582584 0.9999997368545497
1700.82782208523 0.9999997363105227
1700.8295229139026 0.9999997357593959
1700.831223744276 0.999999735193553
1700.83292457635 0.9999997346022793
1700.8346254101252 0.9999997339824369
1700.836326245601 0.9999997333557551
1700.8380270827777 0.9999997327665835
1700.8397279216554 0.9999997322441493
1700.8414287622338 0.9999997317704328
1700.843129604513 0.9999997312998528
1700.844830448493 0.9999997308016912
1700.846531294174 0.9999997302726914
1700.8482321415559 0.9999997297217187
1700.8499329906383 0.9999997291558054
1700.8516338414217 0.9999997291159822
1700.8533346939062 0.9999997290607799
1700.8550355480913 0.9999997289841887
1700.8567364039773 0.9999997288740243
1700.8584372615642 0.9999997287021023
1700.8601381208518 0.9999997283958918
1700.8618389818403 0.9999997277815605
1700.8635398445297 0.9999997265392846
1700.8652407089198 0.9999997243321617
1700.8669415750107 0.9999997212574661
1700.8686424428026 0.9999997183132914
1700.8703433122955 0.9999997170404835
1700.872044183489 0.9999997182415159
1700.8737450563838 0.999999721180507
1700.8754459309791 0.9999997243339493
1700.8771468072755 0.9999997266765626
1700.8788476852728 0.9999997280624768
1700.8805485649707 0.9999997287686823
1700.8822494463698 0.9999997290715622
1700.8839503294694 0.9999997291558237
1700.8856512142702 0.99999972915034
1700.887352100772 0.9999997291338764
1700.8890529889745 0.9999997291335365
1700.8907538788778 0.9999997291464351
1700.8924547704821 0.9999997291637648
1700.8941556637872 0.999999729180473
1700.8958565587932 0.9999997291948574
1700.8975574555002 0.9999997292065056
