Atmospheric Species: CO
Metallicity: 1000
C/O_Ratio: 1.5
Wavelength[nm] Flux_variation
1799.9989592438712 0.9999999887902296
1800.0007592437303 0.9999999810509089
1800.0025592453896 0.9999999682418212
1800.004359248849 0.9999999504261178
1800.0061592541078 0.9999999318583165
1800.0079592611673 0.9999999203732519
1800.0097592700265 0.9999999220604313
1800.0115592806853 0.9999999359342829
1800.0133592931445 0.9999999548462115
1800.015159307404 0.9999999715047106
1800.0169593234634 0.9999999828268501
1800.0187593413225 0.9999999894421345
1800.0205593609817 0.9999999931444308
1800.022359382441 0.9999999953155657
1800.0241594057002 0.9999999966931171
1800.0259594307595 0.9999999976238597
1800.0277594576187 0.9999999982779462
1800.0295594862782 0.9999999987492155
1800.0313595167377 0.9999999990946347
1800.0331595489968 0.9999999993509854
1800.034959583057 0.9999999995427337
1800.0367596189162 0.9999999996866975
1800.0385596565757 0.9999999997941494
1800.0403596960355 0.9999999998728717
1800.0421597372952 0.999999999928619
1800.043959780355 0.9999999999659643
1800.0457598252146 0.9999999999885717
1800.0475598718742 0.9999999999992373
1800.0493599203348 1.0
1800.0511599705944 0.999999999992378
1800.0529600226544 0.9999999999775844
1800.0547600765144 0.9999999999566277
1800.0565601321746 0.9999999999303274
1800.0583601896344 0.9999999998993097
1800.060160248895 0.9999999998640187
1800.061960309955 0.9999999998247198
1800.0637603728153 0.9999999997814781
1800.0655604374756 0.9999999997340702
1800.067360503936 0.999999999681688
1800.0691605721963 0.9999999996221545
1800.070960642257 0.9999999995506623
1800.0727607141173 0.9999999994597467
1800.074560787778 0.999999999344644
1800.0763608632387 0.9999999992147767
1800.0781609404996 0.999999999099561
1800.0799610195606 0.9999999990321651
1800.0817611004218 0.999999999020701
1800.0835611830826 0.9999999990404709
1800.085361267544 0.9999999990572447
1800.0871613538052 0.9999999990524135
1800.088961441866 0.9999999990259398
1800.0907615317276 0.9999999989851847
1800.0925616233892 0.9999999989364322
1800.094361716851 0.9999999988830844
1800.0961618121128 0.9999999988267076
1800.0979619091743 0.9999999987680286
1800.0997620080361 0.9999999987073869
1800.1015621086983 0.9999999986448814
1800.1033622111604 0.9999999985803857
1800.1051623154226 0.9999999985134671
1800.1069624214847 0.9999999984433677
1800.1087625293474 0.9999999983693264
1800.11056263901 0.999999998291387
1800.1123627504724 0.9999999982109611
1800.1141628637351 0.9999999981297867
1800.115962978798 0.9999999980474806
1800.117763095661 0.9999999979599994
1800.1195632143244 0.9999999978599613
1800.121363334787 0.9999999977358934
1800.1231634570509 0.999999997567056
1800.1249635811143 0.9999999973179612
1800.1267637069775 0.9999999969508726
1800.1285638346415 0.9999999964739033
1800.1303639641053 0.9999999959962927
1800.1321640953695 0.9999999957024822
1800.1339642284333 0.9999999957165812
1800.1357643632975 0.9999999959880105
1800.137564499962 0.9999999963394145
1800.1393646384263 0.9999999966155411
1800.1411647786908 0.9999999967657343
1800.1429649207557 0.9999999968141422
1800.1447650646205 0.9999999968002105
1800.1465652102856 0.9999999967497375
1800.148365357751 0.9999999966740212
1800.1501655070163 0.9999999965759581
1800.1519656580817 0.9999999964537543
1800.1537658109473 0.999999996301472
1800.1555659656133 0.9999999961076402
1800.1573661220793 0.9999999958508254
1800.1591662803455 0.9999999954875979
1800.160966440412 0.999999994923485
1800.1627666022782 0.9999999939668321
1800.164566765945 0.9999999923256889
1800.1663669314116 0.9999999897969971
1800.1681670986784 0.9999999866888759
1800.1699672677457 0.9999999840752993
1800.1717674386132 0.9999999832562585
1800.1735676112805 0.9999999846733538
1800.1753677857482 0.9999999874873621
1800.177167962016 0.9999999903604908
1800.1789681400837 0.9999999924656007
1800.180768319952 0.9999999937189589
1800.1825685016202 0.9999999943927655
1800.1843686850887 0.9999999947532316
1800.1861688703573 0.9999999949545647
1800.187969057426 0.9999999950697518
1800.1897692462953 0.9999999951332523
1800.1915694369645 0.9999999951632697
1800.1933696294338 0.9999999951705306
1800.1951698237037 0.9999999951617881
1800.1969700197737 0.9999999951414302
1800.1987702176436 0.9999999951124638
1800.200570417314 0.9999999950769614
1800.2023706187845 0.9999999950363999
1800.204170822055 0.99999999499185
1800.2059710271258 0.9999999949441055
1800.207771233997 0.9999999948937623
1800.2095714426682 0.9999999948412752
1800.2113716531396 0.9999999947869941
1800.2131718654114 0.9999999947311916
1800.2149720794832 0.9999999946740813
1800.2167722953552 0.9999999946158309
1800.2185725130275 0.999999994556573
1800.2203727324998 0.9999999944964109
1800.222172953773 0.9999999944354216
1800.223973176846 0.9999999943736729
1800.2257734017192 0.9999999943112066
1800.2275736283925 0.9999999942480531
1800.2293738568665 0.99999999418423
1800.2311740871405 0.9999999941197433
1800.2329743192142 0.9999999940545865
1800.2347745530888 0.9999999939887423
1800.236574788763 0.9999999939221803
1800.2383750262381 0.9999999938548578
1800.2401752655132 0.9999999937867173
1800.2419755065885 0.9999999937176861
1800.2437757494642 0.9999999936476661
1800.2455759941402 0.999999993576542
1800.247376240616 0.9999999935041681
1800.249176488892 0.9999999934303635
1800.2509767389686 0.9999999933549036
1800.2527769908456 0.9999999932775077
1800.2545772445226 0.999999993197824
1800.2563775 0.9999999931154077
1800.2581777572773 0.9999999930296904
1800.259978016355 0.9999999929399399
1800.2617782772334 0.9999999928452001
1800.2635785399118 0.999999992744206
1800.2653788043906 0.9999999926352566
1800.267179070669 0.99999999251603
1800.2689793387483 0.9999999923832904
1800.2707796086277 0.999999992232429
1800.2725798803074 0.9999999920567981
1800.2743801537872 0.9999999918464335
1800.2761804290674 0.9999999915858561
1800.277980706148 0.9999999912489184
1800.2797809850285 0.9999999907850927
1800.2815812657095 0.9999999900868393
1800.283381548191 0.9999999889397125
1800.285181832473 0.9999999870230377
1800.2869821185548 0.9999999841180635
1800.2887824064367 0.9999999805579369
1800.2905826961191 0.9999999775033608
1800.2923829876015 0.9999999763973071
1800.2941832808851 0.9999999778191866
1800.2959835759682 0.9999999809526399
1800.297783872852 0.9999999843242992
1800.299584171536 0.9999999869140156
1800.3013844720203 0.9999999885259121
1800.3031847743046 0.9999999894277002
1800.3049850783898 0.9999999899318207
1800.3067853842754 0.9999999902349351
1800.3085856919608 0.9999999904322254
1800.3103860014467 0.9999999905644079
1800.3121863127326 0.9999999906492831
1800.3139866258189 0.9999999906972266
1800.3157869407053 0.9999999907160637
1800.3175872573925 0.9999999907107623
1800.3193875758795 0.999999990682236
1800.3211878961672 0.9999999906287648
1800.322988218255 0.9999999905524205
1800.324788542143 0.9999999904675337
1800.326588867832 0.9999999903994006
1800.328389195321 0.9999999903668951
1800.3301895246102 0.9999999903656247
1800.3319898557002 0.9999999903730699
1800.3337901885902 0.9999999903689794
1800.3355905232806 0.9999999903470839
1800.3373908597714 0.9999999903110891
1800.3391911980623 0.9999999902666027
1800.3409915381535 0.9999999902173714
1800.342791880045 0.9999999901652938
1800.344592223737 0.9999999901112975
1800.3463925692295 0.9999999900558915
1800.3481929165218 0.9999999899993953
1800.3499932656148 0.9999999899420267
1800.3517936165083 0.999999989883941
1800.353593969202 0.9999999898252556
1800.355394323696 0.9999999897660599
1800.3571946799907 0.9999999897064248
1800.3589950380854 0.9999999896464076
1800.3607953979806 0.9999999895860548
1800.362595759676 0.9999999895254088
1800.364396123172 0.9999999894644954
1800.3661964884682 0.9999999894033462
1800.3679968555648 0.9999999893419852
1800.3697972244618 0.999999989280433
1800.371597595159 0.9999999892187073
1800.3733979676567 0.9999999891568238
1800.375198341955 0.9999999890947964
1800.3769987180535 0.9999999890326371
1800.3787990959522 0.9999999889703566
1800.3805994756517 0.9999999889079644
1800.3823998571509 0.9999999888454689
1800.3842002404513 0.9999999887828777
1800.3860006255513 0.9999999887201974
1800.387801012452 0.999999988657434
1800.3896014011536 0.9999999885945927
1800.391401791655 0.9999999885316783
1800.3932021839566 0.9999999884686951
1800.395002578059 0.9999999884056466
1800.3968029739617 0.9999999883425363
1800.3986033716649 0.9999999882793669
1800.4004037711682 0.9999999882161407
1800.4022041724722 0.9999999881528596
1800.4040045755767 0.9999999880895253
1800.4058049804812 0.9999999880261388
1800.4076053871865 0.9999999879627004
1800.4094057956918 0.9999999878992105
1800.4112062059978 0.9999999878356681
1800.4130066181044 0.999999987772072
1800.4148070320111 0.9999999877084194
1800.4166074477182 0.9999999876447068
1800.4184078652256 0.9999999875809286
1800.4202082845338 0.9999999875170771
1800.4220087056424 0.9999999874531414
1800.423809128551 0.9999999873891061
1800.42560955326 0.9999999873249491
1800.4274099797701 0.999999987260638
1800.4292104080803 0.9999999871961248
1800.4310108381903 0.9999999871313363
1800.4328112701016 0.9999999870661532
1800.4346117038128 0.9999999870003686
1800.436412139325 0.9999999869335959
1800.4382125766372 0.9999999868650817
1800.4400130157503 0.9999999867933849
1800.4418134566633 0.9999999867160811
1800.4436138993767 0.9999999866303434
1800.445414343891 0.9999999865357897
1800.4472147902052 0.9999999864388578
1800.4490152383203 0.999999986353074
1800.4508156882355 0.9999999862903746
1800.4526161399515 0.9999999862503826
1800.4544165934676 0.999999986220527
1800.4562170487843 0.9999999861870463
1800.4580175059016 0.9999999861438239
1800.4598179648192 0.9999999860918755
1800.4616184255372 0.9999999860345208
1800.463418888056 0.9999999859743228
1800.4652193523748 0.9999999859126306
1800.4670198184942 0.9999999858500619
1800.468820286414 0.999999985786906
1800.4706207561348 0.9999999857233046
1800.4724212276558 0.999999985659316
1800.474221700977 0.9999999855949289
1800.476022176099 0.9999999855300364
1800.4778226530211 0.9999999854643447
1800.4796231317441 0.9999999853972285
1800.4814236122677 0.9999999853277602
1800.483224094591 0.9999999852554013
1800.4850245787152 0.9999999851813793
1800.4868250646402 0.9999999851093238
1800.4886255523654 0.9999999850432815
1800.4904260418912 0.9999999849842895
1800.4922265332175 0.9999999849293881
1800.4940270263437 0.9999999848743392
1800.4958275212716 0.9999999848167064
1800.497628017999 0.9999999847563656
1800.4994285165271 0.9999999846942121
1800.5012290168559 0.999999984631065
1800.5030295189854 0.9999999845673844
1800.5048300229146 0.9999999845033283
1800.5066305286448 0.9999999844389614
1800.5084310361756 0.999999984374426
1800.510231545507 0.9999999843097533
1800.5120320566386 0.9999999842449699
1800.5138325695712 0.9999999841801027
1800.5156330843038 0.99999998411517
1800.517433600837 0.9999999840501661
1800.519234119171 0.999999983985057
1800.521034639305 0.9999999839197924
1800.52283516124 0.9999999838543405
1800.5246356849752 0.9999999837887368
1800.5264362105113 0.9999999837231094
1800.5282367378475 0.9999999836576124
1800.530037266984 0.9999999835922989
1800.5318377979218 0.9999999835270682
1800.5336383306599 0.9999999834617558
1800.5354388651986 0.9999999833962542
1800.5372394015374 0.9999999833305432
1800.539039939677 0.9999999832646453
1800.5408404796171 0.9999999831985819
1800.5426410213581 0.999999983132359
1800.544441564899 0.9999999830659716
1800.5462421102409 0.9999999829994068
1800.5480426573831 0.9999999829326474
1800.549843206326 0.9999999828656715
1800.5516437570698 0.9999999827984514
1800.5534443096133 0.9999999827309537
1800.555244863958 0.9999999826631346
1800.5570454201031 0.9999999825949452
1800.5588459780488 0.9999999825263169
1800.5606465377953 0.9999999824571628
1800.5624470993416 0.999999982387368
1800.564247662689 0.9999999823167768
1800.5660482278365 0.9999999822451722
1800.567848794785 0.999999982172241
1800.569649363534 0.9999999820975226
1800.5714499340836 0.9999999820202979
1800.5732505064339 0.9999999819393788
1800.5750510805847 0.9999999818525666
1800.5768516565358 0.9999999817552093
1800.5786522342883 0.9999999816371943
1800.5804528138403 0.9999999814803073
1800.582253395194 0.9999999812651407
1800.5840539783474 0.9999999809975393
1800.5858545633016 0.9999999807373842
1800.5876551500564 0.9999999805785125
1800.5894557386118 0.999999980570827
1800.591256328968 0.9999999806697325
1800.5930569211246 0.9999999807808454
1800.594857515082 0.9999999808394711
1800.59665811084 0.9999999808355664
1800.598458708398 0.9999999807864849
1800.6002593077574 0.999999980709132
1800.6020599089168 0.9999999806116262
1800.603860511877 0.9999999804952371
1800.6056611166377 0.9999999803568688
1800.607461723199 0.9999999801891744
1800.609262331561 0.999999979978683
1800.6110629417235 0.9999999797009994
1800.6128635536868 0.9999999793099462
1800.6146641674504 0.9999999787127283
1800.6164647830149 0.9999999777289262
1800.6182654003796 0.9999999760856714
1800.6200660195454 0.9999999735934418
1800.6218666405118 0.9999999705520097
1800.6236672632788 0.9999999680034648
1800.6254678878463 0.9999999672134435
1800.6272685142142 0.9999999686137783
1800.629069142383 0.9999999713841169
1800.630869772352 0.999999974212307
1800.6326704041226 0.9999999762839346
1800.6344710376932 0.9999999775148749
1800.6362716730644 0.9999999781726981
1800.6380723102366 0.9999999785200896
1800.6398729492091 0.9999999787094803
1800.6416735899818 0.999999978813048
1800.6434742325562 0.9999999788648395
1800.6452748769307 0.9999999788827858
1800.6470755231057 0.999999978877447
1800.6488761710814 0.9999999788554044
1800.6506768208578 0.9999999788208979
1800.652477472435 0.9999999787767855
1800.6542781258127 0.999999978724983
1800.656078780991 0.999999978666796
1800.65787943797 0.9999999786031037
1800.6596800967498 0.9999999785344812
1800.66148075733 0.9999999784612716
1800.6632814197112 0.999999978383636
1800.6650820838927 0.9999999783015778
1800.6668827498752 0.9999999782149599
1800.6686834176583 0.999999978123506
1800.6704840872417 0.999999978026795
1800.6722847586261 0.9999999779242438
1800.6740854318116 0.9999999778150831
1800.675886106797 0.9999999776983144
1800.6776867835833 0.9999999775726562
1800.6794874621703 0.9999999774364631
1800.6812881425583 0.9999999772876159
1800.6830888247466 0.9999999771233623
1800.6848895087362 0.9999999769400904
1800.6866901945255 0.9999999767329958
1800.688490882116 0.9999999764955853
1800.6902915715073 0.9999999762189072
1800.6920922626994 0.999999975890374
1800.6938929556916 0.9999999754917251
1800.6956936504848 0.9999999749965606
1800.6974943470789 0.9999999743646747
1800.6992950454735 0.9999999735327719
1800.7010957456691 0.9999999723933546
1800.702896447665 0.9999999707426072
1800.7046971514615 0.9999999681522542
1800.7064978570588 0.9999999637285772
1800.7082985644572 0.9999999559343183
1800.710099273656 0.999999943150779
1800.7118999846555 0.9999999256586333
1800.7137006974554 0.9999999078975856
1800.7155014120567 0.9999998975421789
1800.7173021284584 0.999999900128795
1800.719102846661 0.999999914165391
1800.7209035666635 0.9999999325099697
1800.7227042884679 0.9999999483069592
1800.7245050120723 0.9999999588895505
1800.7263057374778 0.999999965028206
1800.7281064646834 0.9999999684635789
1800.7299071936905 0.9999999704865101
1800.7317079244979 0.9999999717750141
1800.7335086571063 0.9999999726471633
1800.7353093915149 0.9999999732601011
1800.7371101277247 0.9999999737010973
1800.738910865735 0.9999999740232365
1800.7407116055463 0.9999999742599481
1800.7425123471583 0.9999999744333175
1800.7443130905708 0.9999999745572626
1800.7461138357844 0.9999999746400937
1800.7479145827986 0.99999997468762
1800.7497153316133 0.9999999747081083
1800.7515160822288 0.9999999747155226
1800.7533168346454 0.9999999747246203
1800.7551175888625 0.9999999747406424
1800.7569183448804 0.9999999747565128
1800.758719102699 0.9999999747617062
1800.7605198623187 0.9999999747512204
1800.7623206237388 0.9999999747260092
1800.7641213869597 0.9999999746887633
1800.7659221519814 0.9999999746410498
1800.7677229188037 0.9999999745825845
1800.769523687427 0.9999999745106907
1800.7713244578508 0.9999999744182988
1800.7731252300757 0.9999999742906354
1800.7749260041012 0.9999999741056846
1800.7767267799275 0.99999997384904
1800.7785275575545 0.9999999735440993
1800.7803283369824 0.9999999732681923
1800.7821291182113 0.9999999731142118
1800.7839299012405 0.9999999731178874
1800.7857306860708 0.999999973229814
1800.7875314727019 0.9999999733638184
1800.7893322611335 0.9999999734577939
1800.7911330513662 0.9999999734886412
1800.7929338433994 0.9999999734564855
1800.7947346372334 0.999999973373542
1800.7965354328685 0.9999999732569919
1800.7983362303044 0.9999999731148528
1800.8001370295412 0.999999972931804
1800.8019378305783 0.9999999726620546
1800.8037386334167 0.9999999722169846
1800.8055394380553 0.9999999714535709
1800.807340244495 0.999999970237764
1800.8091410527359 0.9999999686452286
1800.8109418627773 0.9999999671501542
1800.8127426746196 0.9999999664522157
1800.8145434882624 0.9999999669280613
1800.8163443037058 0.9999999682775944
1800.8181451209505 0.9999999698097061
1800.8199459399964 0.9999999710024903
1800.8217467608426 0.9999999717344134
1800.82354758349 0.9999999721252564
1800.8253484079382 0.999999972324015
1800.8271492341864 0.9999999724243397
1800.8289500622361 0.999999972471762
1800.8307508920861 0.9999999724875767
1800.8325517237377 0.9999999724828476
1800.8343525571897 0.99999997246407
1800.8361533924426 0.9999999724353544
1800.8379542294967 0.999999972399388
1800.8397550683515 0.9999999723580157
1800.8415559090063 0.9999999723125167
1800.843356751463 0.9999999722638012
1800.84515759572 0.9999999722125326
1800.8469584417778 0.9999999721591999
1800.8487592896365 0.9999999721041675
1800.8505601392958 0.999999972047705
1800.8523609907566 0.9999999719900088
1800.8541618440174 0.9999999719312328
1800.85596269908 0.9999999718715353
1800.857763555943 0.999999971811109
1800.8595644146067 0.9999999717501447
1800.8613652750714 0.9999999716887469
1800.863166137337 0.9999999716269017
1800.8649670014036 0.9999999715645452
1800.8667678672707 0.9999999715016474
1800.868568734939 0.9999999714382302
1800.8703696044079 0.9999999713743354
1800.8721704756779 0.9999999713099971
1800.8739713487485 0.9999999712452345
1800.87577222362 0.9999999711800558
1800.877573100293 0.9999999711144608
1800.8793739787664 0.9999999710484436
1800.8811748590406 0.9999999709819921
1800.882975741116 0.9999999709150894
1800.8847766249924 0.9999999708477083
1800.8865775106694 0.9999999707798178
1800.8883783981469 0.9999999707113765
1800.890179287426 0.9999999706423305
1800.8919801785055 0.9999999705726118
1800.893781071386 0.9999999705021321
1800.8955819660673 0.9999999704307748
1800.89738286255 0.9999999703583831
1800.899183760833 0.9999999702847415
1800.9009846609176 0.9999999702095428
1800.9027855628024 0.9999999701323184
1800.9045864664881 0.9999999700523772
1800.906387371975 0.999999969968497
1800.9081882792627 0.9999999698783204
1800.9099891883516 0.9999999697767197
1800.9117900992412 0.9999999696531232
1800.9135910119317 0.9999999694913989
1800.915391926423 0.9999999692815017
1800.9171928427154 0.9999999690446242
1800.9189937608087 0.9999999688443425
1800.9207946807028 0.9999999687472106
1800.922595602398 0.9999999687602743
1800.924396525894 0.9999999688234368
1800.9261974511908 0.999999968867226
1800.9279983782883 0.9999999688613139
1800.9297993071875 0.9999999688111
1800.931600237887 0.9999999687320144
1800.9334011703877 0.9999999686347488
1800.9352021046896 0.9999999685238766
1800.9370030407918 0.9999999684004234
1800.938803978695 0.9999999682636228
1800.9406049183995 0.9999999681115339
1800.9424058599047 0.9999999679411038
1800.944206803211 0.9999999677479481
1800.9460077483184 0.9999999675259047
1800.9478086952265 0.9999999672662993
1800.9496096439352 0.9999999669567017
1800.9514105944456 0.9999999665864019
