Atmospheric Species: CH4_CO_CO2_H2O_NH3
Metallicity: 10
C/O_Ratio: 0.5
Wavelength[nm] Flux_variation
1999.999812280322 0.999714968959919
2000.001812281134 0.9997198300193099
2000.003812283946 0.9997409594166815
2000.0058122887588 0.9997770572514111
2000.0078122955706 0.99982341278835
2000.0098123043829 0.9998687691248417
2000.0118123151951 0.9999011002787412
2000.0138123280071 0.999921192938998
2000.0158123428193 0.9999356937900432
2000.017812359632 0.9999456902861791
2000.0198123784444 0.9999511588807581
2000.0218123992565 0.9999540132004896
2000.0238124220684 0.9999561026325604
2000.025812446881 0.9999588676430518
2000.0278124736938 0.9999627602027424
2000.0298125025063 0.9999663574742604
2000.0318125333185 0.9999671214890078
2000.033812566131 0.9999620283706019
2000.0358126009435 0.999944917056063
2000.037812637756 0.9999112817586352
2000.0398126765688 0.9998676753465775
2000.0418127173812 0.999822706963074
2000.0438127601935 0.9997846652068745
2000.0458128050066 0.9997593707345632
2000.0478128518196 0.9997494062844345
2000.0498129006319 0.9997554777913185
2000.0518129514448 0.9997771932653
2000.053813004258 0.9998126344279862
2000.055813059071 0.999857071031024
2000.0578131158836 0.9999028222299746
2000.0598131746967 0.9999399652683423
2000.06181323551 0.9999575502551526
2000.0638132983227 0.9999608365526064
2000.0658133631362 0.9999611276907839
2000.0678134299496 0.9999628236811589
2000.0698134987629 0.9999663809816
2000.0718135695763 0.9999701070171588
2000.0738136423897 0.9999720039701886
2000.0758137172033 0.999971431111405
2000.0778137940172 0.9999682366789093
2000.079813872831 0.9999588778018859
2000.0818139536448 0.9999319584834282
2000.0838140364588 0.9998851180526371
2000.0858141212727 0.9998298604677587
2000.087814208087 0.9997754523650283
2000.089814296901 0.9997304127877427
2000.091814387715 0.9996996476479514
2000.0938144805295 0.9996847939180062
2000.095814575344 0.9996861056632088
2000.0978146721586 0.9997035738180021
2000.0998147709731 0.999736826291975
2000.101814871788 0.9997837994055284
2000.1038149746025 0.9998385081418494
2000.1058150794172 0.9998879992234083
2000.1078151862328 0.9999065534335173
2000.1098152950476 0.9998946808688205
2000.1118154058631 0.9998829030825197
2000.1138155186784 0.9998812020108622
2000.115815633494 0.9998908586970089
2000.1178157503095 0.9999101790269341
2000.1198158691257 0.9999346160048156
2000.121815989941 0.9999566967329632
2000.123816112757 0.9999707881304474
2000.1258162375732 0.9999790166002498
2000.1278163643894 0.9999848111521681
2000.1298164932057 0.9999877693793542
2000.1318166240221 0.9999864585128545
2000.1338167568388 0.9999807736499464
2000.1358168916554 0.9999723005895526
2000.1378170284725 0.9999642687159725
2000.1398171672895 0.9999601916368183
2000.1418173081065 0.9999618422647683
2000.1438174509237 0.9999678608027214
2000.145817595741 0.9999731914265253
2000.1478177425586 0.9999733585504992
2000.1498178913766 0.9999711321623804
2000.1518180421942 0.9999723933752548
2000.1538181950127 0.9999784287758436
2000.1558183498312 0.9999854539816293
2000.1578185066492 0.9999894730185516
2000.1598186654676 0.9999905404124922
2000.1618188262864 0.9999909047297421
2000.1638189891055 0.9999909879476007
2000.165819153924 0.9999902812263675
2000.1678193207435 0.9999898222318769
2000.1698194895628 0.9999883294785118
2000.1718196603822 0.9999843228069473
2000.1738198332023 0.9999785799733237
2000.1758200080221 0.99997151718021
2000.177820184842 0.9999631505817602
2000.1798203636622 0.9999538949672923
2000.1818205444827 0.9999452603826378
2000.183820727303 0.9999393174276336
2000.1858209121242 0.9999365346337025
2000.1878210989448 0.9999368182746212
2000.1898212877659 0.9999425875193685
2000.1918214785871 0.9999520220754112
2000.1938216714088 0.9999604021935841
2000.19582186623 0.999966167867514
2000.1978220630526 0.9999682691426834
2000.1998222618745 0.9999674675100185
2000.2018224626968 0.9999665689871302
2000.2038226655195 0.9999667466565892
2000.205822870342 0.9999653027521304
2000.2078230771644 0.9999589761418278
2000.2098232859878 0.9999497162011356
2000.2118234968113 0.9999416307547357
2000.213823709635 0.9999339776614351
2000.2158239244584 0.9999206082782938
2000.2178241412826 0.9998962399094573
2000.2198243601067 0.9998609389184029
2000.2218245809313 0.9998164378709545
2000.2238248037554 0.9997466778433501
2000.2258250285802 0.9996657425124329
2000.2278252554056 0.9996577810428262
2000.2298254842308 0.9997365613751714
2000.2318257150564 0.999821801990149
2000.2338259478825 0.99987618710039
2000.2358261827083 0.9999156097290529
2000.2378264195343 0.9999388139659119
2000.2398266583607 0.9999484651937096
2000.2418268991873 0.9999549019450218
2000.2438271420144 0.9999643499786948
2000.2458273868415 0.9999768052985083
2000.247827633669 0.9999880571022787
2000.2498278824967 0.9999928187535619
2000.2518281333246 0.9999901701706652
2000.2538283861531 0.999984575840494
2000.255828640981 0.999980879356535
2000.2578288978098 0.9999808647211388
2000.2598291566387 0.9999836503433731
2000.2618294174679 0.9999876504134825
2000.2638296802972 0.999991752438169
2000.2658299451268 0.9999951246990023
2000.267830211957 0.9999970360913647
2000.2698304807873 0.9999971790713527
2000.271830751618 0.9999958760781149
2000.2738310244486 0.9999939073587659
2000.2758312992798 0.9999918693466564
2000.277831576111 0.9999895519861719
2000.2798318549428 0.9999862132614386
2000.2818321357747 0.999981356193006
2000.283832418607 0.9999747397640137
2000.2858327034396 0.9999651345649367
2000.2878329902726 0.9999509717780484
2000.2898332791053 0.9999347993295553
2000.2918335699385 0.9999224381232602
2000.2938338627723 0.9999176570612337
2000.2958341576061 0.9999213621885295
2000.2978344544404 0.9999325724143251
2000.299834753275 0.9999480343117713
2000.30183505411 0.9999621962634504
2000.3038353569448 0.9999718601524679
2000.3058356617803 0.9999788663517887
2000.3078359686162 0.9999838912029937
2000.3098362774524 0.9999827782289025
2000.3118365882883 0.9999714055258369
2000.313836901125 0.9999524654023269
2000.3158372159623 0.999931336455732
2000.3178375327993 0.9999105544308403
2000.319837851637 0.9998929455228874
2000.321838172475 0.9998824440094827
2000.3238384953136 0.9998793177179818
2000.3258388201518 0.9998761640418982
2000.3278391469905 0.9998655411481251
2000.3298394758299 0.999853793841186
2000.331839806669 0.9998506597570012
2000.3338401395092 0.9998591748242387
2000.3358404743494 0.9998767621874598
2000.33784081119 0.9998980843121141
2000.3398411500311 0.9999193043082256
2000.3418414908724 0.9999376364452922
2000.3438418337141 0.9999489342775941
2000.3458421785558 0.9999542111966584
2000.3478425253984 0.9999566115216653
2000.3498428742414 0.9999559421024796
2000.351843225084 0.9999539465639334
2000.353843577928 0.9999556295487864
2000.3558439327714 0.9999627702213155
2000.3578442896157 0.9999717780492844
2000.3598446484605 0.9999771318902289
2000.361845009305 0.9999744582879618
2000.3638453721503 0.9999626930842752
2000.3658457369957 0.9999455111678228
2000.3678461038414 0.9999273723191935
2000.3698464726879 0.9999118699099622
2000.3718468435345 0.9999025844283677
2000.3738472163816 0.9999013394614148
2000.3758475912289 0.9999061778938306
2000.3778479680766 0.9999127978983579
2000.3798483469245 0.9999196802993527
2000.3818487277726 0.9999290546226957
2000.3838491106217 0.9999424838488935
2000.3858494954707 0.9999581621152593
2000.3878498823208 0.9999708313382087
2000.389850271171 0.9999768105088777
2000.391850662021 0.9999794241277753
2000.3938510548717 0.9999824776930052
2000.3958514497233 0.9999838346133954
2000.3978518465744 0.9999794989362862
2000.3998522454267 0.999971879315836
2000.4018526462794 0.9999673175262973
2000.4038530491318 0.9999693312736521
2000.405853453985 0.9999774472618235
2000.407853860839 0.9999873352120046
2000.4098542696927 0.9999926248198274
2000.4118546805466 0.9999908660458156
2000.4138550934015 0.9999852713725033
2000.4158555082572 0.9999798719433939
2000.4178559251125 0.9999770319530752
2000.4198563439686 0.9999771397406039
2000.421856764825 0.9999788762261921
2000.423857187682 0.9999807374825248
2000.425857612539 0.999982962167887
2000.427858039397 0.9999863498380338
2000.4298584682556 0.9999894282923874
2000.4318588991136 0.9999907114800975
2000.4338593319726 0.9999898817557563
2000.4358597668324 0.9999825571599948
2000.4378602036923 0.9999682614766232
2000.4398606425525 0.9999539892850868
2000.4418610834134 0.9999456633923625
2000.4438615262745 0.9999455829919894
2000.4458619711359 0.9999532758034676
2000.4478624179985 0.9999650349335073
2000.449862866861 0.9999741012934599
2000.4518633177238 0.999976630010615
2000.453863770587 0.9999757951467154
2000.4558642254513 0.999974653208626
2000.4578646823156 0.999972116723417
2000.4598651411802 0.999966918712585
2000.4618656020457 0.9999613275055937
2000.4638660649114 0.9999586917323726
2000.4658665297777 0.9999601493304091
2000.4678669966447 0.9999639185047083
2000.4698674655117 0.9999671437780727
2000.4718679363796 0.9999697066170461
2000.4738684092474 0.9999741156411804
2000.475868884116 0.9999816593447792
2000.477869360985 0.9999902401118806
2000.4798698398545 0.9999952910538554
2000.4818703207245 0.9999940588855434
2000.483870803595 0.9999879425650658
2000.485871288466 0.9999793818541152
2000.4878717753377 0.9999700899642268
2000.4898722642095 0.9999625571893094
2000.491872755082 0.9999596180643088
2000.4938732479552 0.9999623594925879
2000.4958737428285 0.9999690592626063
2000.4978742397027 0.9999759827852228
2000.4998747385769 0.9999807537969837
2000.5018752394521 0.999983684372406
2000.5038757423272 0.9999850443842495
2000.5058762472029 0.9999844370173537
2000.5078767540795 0.9999820381655323
2000.509877262956 0.9999783142186192
2000.5118777738342 0.999973873997985
2000.5138782867118 0.9999700852922647
2000.5158788015904 0.9999679914348831
2000.5178793184689 0.9999656320021435
2000.519879837349 0.9999551827690588
2000.5218803582286 0.9999279842346188
2000.5238808811096 0.9998881286782516
2000.5258814059907 0.9998429536634166
2000.5278819328719 0.9998021234739637
2000.5298824617544 0.9997749759205563
2000.5318829926364 0.999762165978183
2000.5338835255197 0.999763814681747
2000.5358840604035 0.9997808927770219
2000.537884597288 0.9998122848216792
2000.5398851361724 0.999853691189602
2000.5418856770577 0.9998971268340361
2000.5438862199437 0.9999335136526758
2000.54588676483 0.9999561833964393
2000.5478873117172 0.9999663586680043
2000.5498878606047 0.9999701721545485
2000.5518884114929 0.9999714699073652
2000.5538889643813 0.9999725846450965
2000.5558895192703 0.9999745681150568
2000.5578900761602 0.9999762537986161
2000.5598906350506 0.9999751185705303
2000.5618911959411 0.9999708978486702
2000.5638917588328 0.9999666618104323
2000.5658923237245 0.9999650906312363
2000.567892890617 0.9999653887270105
2000.5698934595102 0.9999626200985092
2000.5718940304037 0.9999523648296789
2000.573894603298 0.9999379773756124
2000.575895178193 0.9999264871004833
2000.5778957550883 0.9999225012358728
2000.5798963339842 0.9999276365530411
2000.5818969148809 0.9999406568046181
2000.5838974977776 0.9999560358275716
2000.5858980826756 0.9999621844168439
2000.5878986695739 0.9999533193386596
2000.589899258473 0.9999395681480341
2000.591899849372 0.9999302827311485
2000.5939004422726 0.9999283038150406
2000.5959010371732 0.9999333551640625
2000.5979016340743 0.999938263628677
2000.599902232976 0.9999456507150132
2000.6019028338785 0.9999480194842284
2000.6039034367816 0.9999449604019003
2000.605904041685 0.9999265744774755
2000.6079046485897 0.9998797743789316
2000.6099052574943 0.9998151952677752
2000.6119058683998 0.9997505542465444
2000.613906481306 0.9996978726529259
2000.6159070962128 0.9996617011149664
2000.61790771312 0.9996426992963567
2000.6199083320282 0.9996403771246201
2000.621908952937 0.9996546335832955
2000.623909575846 0.9996859351258901
2000.625910200756 0.9997341345350441
2000.627910827666 0.9997960661502261
2000.6299114565775 0.9998618747033566
2000.6319120874891 0.9999141657378432
2000.633912720402 0.9999330054891203
2000.6359133553146 0.9999150647125777
2000.6379139922285 0.9998731756251268
2000.6399146311426 0.9998209211491439
2000.6419152720573 0.9997709760012088
2000.643915914973 0.9997326659411898
2000.645916559889 0.9997098954325789
2000.6479172068057 0.9997037252561994
2000.649917855723 0.9997142708409126
2000.6519185066409 0.9997402614890492
2000.6539191595598 0.9997672183835573
2000.6559198144796 0.9997481679646054
2000.6579204713996 0.9997114327615063
2000.65992113032 0.9997594736622426
2000.6619217912419 0.9998567024132236
2000.6639224541639 0.9998966193449497
2000.6659231190863 0.999892554349047
2000.6679237860099 0.9998851458368878
2000.6699244549338 0.9998756710738907
2000.6719251258585 0.9998686597184513
2000.6739257987842 0.9998679806480703
2000.67592647371 0.9998752996902511
2000.6779271506366 0.9998914131652992
2000.6799278295641 0.9999160744196932
2000.6819285104925 0.9999435097846249
2000.6839291934211 0.999960917392647
2000.6859298783502 0.9999648821703468
2000.6879305652806 0.9999604632838848
2000.6899312542112 0.9999508664082096
2000.691931945143 0.9999391934911174
2000.6939326380752 0.9999295018098792
2000.6959333330078 0.9999238234584752
2000.6979340299417 0.9999218954686886
2000.6999347288759 0.9999237950555754
2000.7019354298113 0.999930956129849
2000.7039361327465 0.9999434346954145
2000.705936837683 0.9999551283831083
2000.7079375446203 0.9999556558507272
2000.7099382535578 0.9999471753602027
2000.7119389644963 0.9999401858292511
2000.7139396774357 0.999936995424712
2000.7159403923756 0.9999373798329261
2000.7179411093164 0.9999402894016953
2000.7199418282578 0.9999436406979046
2000.7219425491999 0.9999479730554113
2000.7239432721424 0.9999552625345803
2000.7259439970862 0.9999642250065333
2000.7279447240305 0.9999708390365049
2000.7299454529755 0.9999737841763015
2000.7319461839213 0.9999752710915036
2000.7339469168678 0.9999768111771914
2000.735947651815 0.9999778301808006
2000.7379483887632 0.9999776587029626
2000.7399491277117 0.9999774466734451
2000.741949868661 0.9999790906184234
2000.7439506116116 0.9999827073558533
2000.745951356562 0.9999863317566277
2000.7479521035139 0.9999880707445089
2000.7499528524665 0.9999872945644173
2000.7519536034195 0.9999832924913837
2000.7539543563735 0.9999748848324508
2000.7559551113281 0.9999628661059674
2000.7579558682833 0.9999513768633981
2000.75995662724 0.9999448082501435
2000.7619573881968 0.9999449900877693
2000.7639581511546 0.9999509644938687
2000.7659589161133 0.9999593377364657
2000.7679596830724 0.9999667547114356
2000.7699604520324 0.9999729522979713
2000.7719612229935 0.9999785534107285
2000.7739619959548 0.9999826164314435
2000.775962770917 0.9999844640183128
2000.7779635478798 0.9999849976566448
2000.7799643268443 0.9999850860440449
2000.7819651078087 0.9999841972099194
2000.783965890774 0.9999807105511456
2000.7859666757402 0.999973533233707
2000.7879674627075 0.999964119136262
2000.789968251675 0.9999559915985351
2000.7919690426434 0.9999522646321591
2000.7939698356126 0.9999544467735897
2000.795970630583 0.9999620301628118
2000.7979714275539 0.9999719066256744
2000.7999722265256 0.9999796286899785
2000.8019730274982 0.999982824615351
2000.8039738304715 0.9999803495937556
2000.8059746354456 0.9999705135846904
2000.8079754424211 0.9999560942460054
2000.8099762513964 0.9999435051265279
2000.8119770623734 0.9999364597694252
2000.8139778753505 0.9999350536212755
2000.8159786903286 0.9999368310031882
2000.8179795073077 0.9999391840019183
2000.8199803262876 0.9999423902533979
2000.8219811472686 0.9999484943336276
2000.8239819702499 0.9999577112188597
2000.8259827952318 0.999966477403891
2000.8279836222155 0.9999679900335038
2000.8299844511994 0.9999584138124089
2000.831985282184 0.999942600396052
2000.8339861151694 0.9999279618788159
2000.835986950156 0.9999182670289259
2000.8379877871434 0.9999151673985616
2000.8399886261318 0.9999196304992876
2000.8419894671204 0.9999307927409314
2000.84399031011 0.9999440636951425
2000.8459911551006 0.9999522135353723
2000.8479920020925 0.9999528688423972
2000.8499928510848 0.9999509781759605
2000.8519937020778 0.9999516671634565
2000.853994555072 0.9999570337675769
2000.855995410067 0.9999663363146432
2000.8579962670626 0.9999760111545976
2000.8599971260594 0.9999815636275151
2000.861997987057 0.9999818909996283
2000.8639988500552 0.999979913798879
2000.8659997150544 0.9999788834956956
2000.8680005820545 0.9999798299150527
2000.8700014510555 0.9999812189534296
2000.872002322057 0.9999802129386268
2000.8740031950601 0.9999750350131291
2000.8760040700631 0.9999679048884855
2000.8780049470681 0.9999671832644939
2000.8800058260733 0.9999742223024786
2000.8820067070794 0.999979754765947
2000.8840075900869 0.9999770127606404
2000.886008475095 0.9999622837742096
2000.8880093621042 0.9999400298351258
2000.8900102511134 0.9999190551006016
2000.892011142124 0.9999041692908539
2000.8940120351353 0.9998976655029097
2000.8960129301477 0.999900499104721
2000.8980138271609 0.9999122294732663
2000.900014726175 0.9999308316801914
2000.90201562719 0.9999504814252558
2000.904016530206 0.9999558676761712
2000.906017435223 0.9999387040549842
2000.908018342241 0.9999138692846433
2000.9100192512599 0.9998925605186858
2000.9120201622795 0.9998794066694512
2000.9140210752998 0.9998766861992562
2000.916021990322 0.9998846638899463
2000.918022907344 0.9999015601087419
2000.9200238263672 0.9999239711225612
2000.9220247473918 0.9999471398487212
2000.9240256704163 0.9999651226382608
2000.9260265954426 0.9999758760100359
2000.9280275224694 0.9999824520427111
2000.9300284514975 0.9999865511975022
2000.9320293825265 0.9999883701723101
2000.9340303155564 0.9999888576267587
2000.9360312505873 0.9999893314955189
2000.9380321876183 0.9999900421516885
2000.9400331266515 0.9999895832980447
2000.9420340676843 0.9999856117303053
2000.9440350107188 0.9999772223086598
2000.9460359557547 0.9999668151037596
2000.9480369027913 0.9999579338048398
2000.9500378518283 0.9999520299498139
2000.9520388028668 0.9999484538662557
2000.9540397559056 0.9999467082072263
2000.9560407109461 0.9999475482223036
2000.9580416679873 0.9999509315092061
2000.9600426270292 0.9999542871446466
2000.962043588072 0.9999555893819123
2000.9640445511163 0.999956780979764
2000.966045516161 0.9999607122047666
2000.9680464832072 0.9999667607805475
2000.9700474522538 0.9999707031766073
2000.9720484233017 0.999969089611647
2000.9740493963504 0.9999636972213067
2000.9760503713999 0.9999590989274694
2000.9780513484511 0.9999574623587871
2000.9800523275028 0.9999573182052702
2000.9820533085556 0.9999557419993266
2000.9840542916097 0.9999515813636571
2000.9860552766643 0.9999456290971126
2000.9880562637197 0.99993803821523
2000.9900572527768 0.9999289592316174
2000.992058243834 0.9999205539845751
2000.9940592368928 0.9999148372375831
2000.996060231953 0.9999107778161314
2000.9980612290135 0.9999069813085564
2001.0000622280747 0.9999067986453717
2001.0020632291375 0.9999089864790467
2001.004064232201 0.9999050923412753
2001.0060652372658 0.999892599076118
2001.0080662443318 0.9998780402174617
2001.0100672533981 0.9998681226427222
2001.0120682644658 0.9998656297394508
2001.0140692775344 0.9998705888750278
2001.0160702926044 0.9998819950115936
2001.018071309675 0.9998986788577331
2001.0200723287464 0.9999180908551051
2001.0220733498195 0.9999346060752042
2001.0240743728934 0.9999432110491475
2001.0260753979683 0.9999447073950488
2001.0280764250442 0.9999420430427546
2001.0300774541208 0.9999350030282713
2001.0320784851986 0.999917323793473
2001.0340795182774 0.9998849658807346
2001.0360805533578 0.9998498681835127
2001.0380815904384 0.9998196980007845
2001.0400826295206 0.9997940289094
2001.0420836706037 0.9997685895170859
2001.0440847136879 0.9997377020608128
2001.046085758773 0.9997054949010644
2001.0480868058594 0.9996827763058689
2001.0500878549465 0.999674902069451
2001.052088906035 0.9996832725648528
2001.054089959124 0.9997080867009377
